Filepath	C:\Chromel\data\Analytik\Walther group\Guido\mechanosense\GCR268.SEQ\UV_VIS_1.CHL\296.acd
Channel	UV_VIS_1

Sample Information:
Datasource	PC-8NN4M2J_local
Sequence	Analytik\Walther group\Guido\mechanosense\GCR268.SEQ
Sample	200717-1
Sample Number	2
Sample Position	RA1
Sample ID	296
Comment	milliQ background 100uL
QNT method	default
PGM file	single-component-3 40min 60C 0,4mLmin
Type	unknown
Status	finished
Date	17.07.2020
Time	08:58:11
Injection Volume (µl)	100,00
Dilution Factor	1,000000
Amount	1,000000
Weight	1,000000

Raw Data Header Information:
Time Min. (min)	0,000
Time Max. (min)	40,007
Raw-Time Min. (min)	0,000
Raw-Time Max. (min)	40,007
Data Points	3638
Detector	VWD3000.dll
Preferred Read Mode	Unknown
Write Mode	Unknown
Data System	Chromeleon
Version High	06
Version Low	80
Build No.	3160
File Format Version	11
Generation Type	8
File ID	239054205
File Status	16
GUID	8f70368e-c7fa-11ea-b409-00184d71f7da
Signal Factor	0,000010
Signal Dimension	mAU
Signal Unit	Absorbance
Signal Min.	-0,91176
Signal Max.	3,889190
Channel Name	UV_VIS_1
Driver Name	VWD-3x00 Detector
Min. Step	66
Max. Step	66
Average Step	66

Signal Parameter Information:
Signal Info	WVL:260 nm
Wavelength	260 nm
	 




















Raw Data:
Time(min)	Step(sec)	Value(mAU)
0,000000	0,00	-0,177800	
0,011000	0,66	-0,177920	
0,022000	0,66	-0,180370	
0,033000	0,66	-0,188950	
0,044000	0,66	-0,194520	
0,055000	0,66	-0,201090	
0,066000	0,66	-0,205030	
0,077000	0,66	-0,204640	
0,088000	0,66	-0,205870	
0,099000	0,66	-0,203580	
0,110000	0,66	-0,200880	
0,121000	0,66	-0,198240	
0,132000	0,66	-0,198650	
0,143000	0,66	-0,202140	
0,154000	0,66	-0,204170	
0,165000	0,66	-0,206170	
0,176000	0,66	-0,205130	
0,187000	0,66	-0,202900	
0,198000	0,66	-0,203010	
0,209000	0,66	-0,205030	
0,220000	0,66	-0,209530	
0,231000	0,66	-0,209140	
0,242000	0,66	-0,209790	
0,253000	0,66	-0,209050	
0,264000	0,66	-0,209460	
0,275000	0,66	-0,210380	
0,286000	0,66	-0,211420	
0,297000	0,66	-0,214530	
0,308000	0,66	-0,218390	
0,319000	0,66	-0,222680	
0,330000	0,66	-0,224640	
0,341000	0,66	-0,226140	
0,352000	0,66	-0,227540	
0,363000	0,66	-0,226080	
0,374000	0,66	-0,224190	
0,385000	0,66	-0,226640	
0,396000	0,66	-0,231410	
0,407000	0,66	-0,233760	
0,418000	0,66	-0,233810	
0,429000	0,66	-0,234310	
0,440000	0,66	-0,236930	
0,451000	0,66	-0,237800	
0,462000	0,66	-0,237100	
0,473000	0,66	-0,236040	
0,484000	0,66	-0,234780	
0,495000	0,66	-0,236270	
0,506000	0,66	-0,236800	
0,517000	0,66	-0,235600	
0,528000	0,66	-0,231770	
0,539000	0,66	-0,229390	
0,550000	0,66	-0,230510	
0,561000	0,66	-0,230260	
0,572000	0,66	-0,232160	
0,583000	0,66	-0,233090	
0,594000	0,66	-0,232560	
0,605000	0,66	-0,232040	
0,616000	0,66	-0,232470	
0,627000	0,66	-0,231060	
0,638000	0,66	-0,229310	
0,649000	0,66	-0,231460	
0,660000	0,66	-0,233670	
0,671000	0,66	-0,233740	
0,682000	0,66	-0,235800	
0,693000	0,66	-0,236050	
0,704000	0,66	-0,233030	
0,715000	0,66	-0,236110	
0,726000	0,66	-0,235960	
0,737000	0,66	-0,234200	
0,748000	0,66	-0,229900	
0,759000	0,66	-0,228510	
0,770000	0,66	-0,228230	
0,781000	0,66	-0,227430	
0,792000	0,66	-0,227120	
0,803000	0,66	-0,228940	
0,814000	0,66	-0,228240	
0,825000	0,66	-0,224840	
0,836000	0,66	-0,222050	
0,847000	0,66	-0,223720	
0,858000	0,66	-0,225110	
0,869000	0,66	-0,225570	
0,880000	0,66	-0,226750	
0,891000	0,66	-0,227420	
0,902000	0,66	-0,222090	
0,913000	0,66	-0,220590	
0,924000	0,66	-0,221130	
0,935000	0,66	-0,223210	
0,946000	0,66	-0,224220	
0,957000	0,66	-0,223350	
0,968000	0,66	-0,222170	
0,979000	0,66	-0,221730	
0,990000	0,66	-0,221240	
1,001000	0,66	-0,221130	
1,012000	0,66	-0,221330	
1,023000	0,66	-0,220510	
1,034000	0,66	-0,220460	
1,045000	0,66	-0,218720	
1,056000	0,66	-0,215720	
1,067000	0,66	-0,214140	
1,078000	0,66	-0,214540	
1,089000	0,66	-0,215850	
1,100000	0,66	-0,215500	
1,111000	0,66	-0,213700	
1,122000	0,66	-0,212670	
1,133000	0,66	-0,214340	
1,144000	0,66	-0,214950	
1,155000	0,66	-0,213980	
1,166000	0,66	-0,214240	
1,177000	0,66	-0,213750	
1,188000	0,66	-0,214130	
1,199000	0,66	-0,212950	
1,210000	0,66	-0,212390	
1,221000	0,66	-0,211460	
1,232000	0,66	-0,210350	
1,243000	0,66	-0,212380	
1,254000	0,66	-0,211990	
1,265000	0,66	-0,208770	
1,276000	0,66	-0,206280	
1,287000	0,66	-0,201610	
1,298000	0,66	-0,191150	
1,309000	0,66	-0,174710	
1,320000	0,66	-0,150810	
1,331000	0,66	-0,108900	
1,342000	0,66	-0,003490	
1,353000	0,66	0,225080	
1,364000	0,66	0,577800	
1,375000	0,66	0,974320	
1,386000	0,66	1,328130	
1,397000	0,66	1,589360	
1,408000	0,66	1,738640	
1,419000	0,66	1,760220	
1,430000	0,66	1,646560	
1,441000	0,66	1,423820	
1,452000	0,66	1,135630	
1,463000	0,66	0,825390	
1,474000	0,66	0,524250	
1,485000	0,66	0,245290	
1,496000	0,66	0,000440	
1,507000	0,66	-0,206390	
1,518000	0,66	-0,373770	
1,529000	0,66	-0,507390	
1,540000	0,66	-0,613290	
1,551000	0,66	-0,696000	
1,562000	0,66	-0,758710	
1,573000	0,66	-0,807150	
1,584000	0,66	-0,844630	
1,595000	0,66	-0,870230	
1,606000	0,66	-0,888700	
1,617000	0,66	-0,902060	
1,628000	0,66	-0,911760	
1,639000	0,66	-0,911370	
1,650000	0,66	-0,904650	
1,661000	0,66	-0,895520	
1,672000	0,66	-0,881210	
1,683000	0,66	-0,864140	
1,694000	0,66	-0,846820	
1,705000	0,66	-0,825310	
1,716000	0,66	-0,800090	
1,727000	0,66	-0,665400	
1,738000	0,66	-0,543270	
1,749000	0,66	-0,555420	
1,760000	0,66	-0,598800	
1,771000	0,66	-0,621620	
1,782000	0,66	-0,631810	
1,793000	0,66	-0,633510	
1,804000	0,66	-0,630860	
1,815000	0,66	-0,625770	
1,826000	0,66	-0,618090	
1,837000	0,66	-0,605670	
1,848000	0,66	-0,595790	
1,859000	0,66	-0,587780	
1,870000	0,66	-0,577810	
1,881000	0,66	-0,568620	
1,892000	0,66	-0,558850	
1,903000	0,66	-0,554170	
1,914000	0,66	-0,550390	
1,925000	0,66	-0,543000	
1,936000	0,66	-0,537630	
1,947000	0,66	-0,530820	
1,958000	0,66	-0,523550	
1,969000	0,66	-0,520380	
1,980000	0,66	-0,514580	
1,991000	0,66	-0,508220	
2,002000	0,66	-0,504800	
2,013000	0,66	-0,502330	
2,024000	0,66	-0,496380	
2,035000	0,66	-0,492770	
2,046000	0,66	-0,489750	
2,057000	0,66	-0,488130	
2,068000	0,66	-0,488360	
2,079000	0,66	-0,485590	
2,090000	0,66	-0,479810	
2,101000	0,66	-0,476430	
2,112000	0,66	-0,472780	
2,123000	0,66	-0,466670	
2,134000	0,66	-0,461850	
2,145000	0,66	-0,453600	
2,156000	0,66	-0,431340	
2,167000	0,66	-0,344670	
2,178000	0,66	-0,168890	
2,189000	0,66	-0,019500	
2,200000	0,66	0,007870	
2,211000	0,66	-0,057390	
2,222000	0,66	-0,148860	
2,233000	0,66	-0,220200	
2,244000	0,66	-0,253280	
2,255000	0,66	-0,258830	
2,266000	0,66	-0,247750	
2,277000	0,66	-0,228460	
2,288000	0,66	-0,205960	
2,299000	0,66	-0,187270	
2,310000	0,66	-0,173590	
2,321000	0,66	-0,161890	
2,332000	0,66	-0,151280	
2,343000	0,66	-0,142040	
2,354000	0,66	-0,133820	
2,365000	0,66	-0,129970	
2,376000	0,66	-0,128360	
2,387000	0,66	-0,127480	
2,398000	0,66	-0,126260	
2,409000	0,66	-0,125410	
2,420000	0,66	-0,123470	
2,431000	0,66	-0,123660	
2,442000	0,66	-0,126020	
2,453000	0,66	-0,126600	
2,464000	0,66	-0,128780	
2,475000	0,66	-0,130000	
2,486000	0,66	-0,129310	
2,497000	0,66	-0,128970	
2,508000	0,66	-0,127960	
2,519000	0,66	-0,127380	
2,530000	0,66	-0,127610	
2,541000	0,66	-0,128570	
2,552000	0,66	-0,126610	
2,563000	0,66	-0,125300	
2,574000	0,66	-0,124490	
2,585000	0,66	-0,126870	
2,596000	0,66	-0,129360	
2,607000	0,66	-0,131970	
2,618000	0,66	-0,132100	
2,629000	0,66	-0,130680	
2,640000	0,66	-0,131470	
2,651000	0,66	-0,130760	
2,662000	0,66	-0,130060	
2,673000	0,66	-0,129600	
2,684000	0,66	-0,132160	
2,695000	0,66	-0,130150	
2,706000	0,66	-0,127190	
2,717000	0,66	-0,127850	
2,728000	0,66	-0,129500	
2,739000	0,66	-0,132670	
2,750000	0,66	-0,132790	
2,761000	0,66	-0,128940	
2,772000	0,66	-0,130470	
2,783000	0,66	-0,132130	
2,794000	0,66	-0,136050	
2,805000	0,66	-0,137470	
2,816000	0,66	-0,137270	
2,827000	0,66	-0,135500	
2,838000	0,66	-0,137960	
2,849000	0,66	-0,140750	
2,860000	0,66	-0,140290	
2,871000	0,66	-0,142030	
2,882000	0,66	-0,144290	
2,893000	0,66	-0,147280	
2,904000	0,66	-0,149750	
2,915000	0,66	-0,157830	
2,926000	0,66	-0,166390	
2,937000	0,66	-0,174510	
2,948000	0,66	-0,185090	
2,959000	0,66	-0,197610	
2,970000	0,66	-0,211860	
2,981000	0,66	-0,221810	
2,992000	0,66	-0,229990	
3,003000	0,66	-0,234060	
3,014000	0,66	-0,236340	
3,025000	0,66	-0,238250	
3,036000	0,66	-0,236350	
3,047000	0,66	-0,230660	
3,058000	0,66	-0,225840	
3,069000	0,66	-0,220720	
3,080000	0,66	-0,216000	
3,091000	0,66	-0,210260	
3,102000	0,66	-0,205360	
3,113000	0,66	-0,201860	
3,124000	0,66	-0,198190	
3,135000	0,66	-0,193130	
3,146000	0,66	-0,187990	
3,157000	0,66	-0,182200	
3,168000	0,66	-0,175120	
3,179000	0,66	-0,169850	
3,190000	0,66	-0,168540	
3,201000	0,66	-0,170220	
3,212000	0,66	-0,168730	
3,223000	0,66	-0,166060	
3,234000	0,66	-0,167450	
3,245000	0,66	-0,167170	
3,256000	0,66	-0,166610	
3,267000	0,66	-0,167430	
3,278000	0,66	-0,167510	
3,289000	0,66	-0,167830	
3,300000	0,66	-0,166480	
3,311000	0,66	-0,164790	
3,322000	0,66	-0,163720	
3,333000	0,66	-0,164410	
3,344000	0,66	-0,165020	
3,355000	0,66	-0,164500	
3,366000	0,66	-0,166120	
3,377000	0,66	-0,164540	
3,388000	0,66	-0,164530	
3,399000	0,66	-0,162670	
3,410000	0,66	-0,160850	
3,421000	0,66	-0,159000	
3,432000	0,66	-0,160210	
3,443000	0,66	-0,165050	
3,454000	0,66	-0,168420	
3,465000	0,66	-0,167240	
3,476000	0,66	-0,164580	
3,487000	0,66	-0,163220	
3,498000	0,66	-0,166470	
3,509000	0,66	-0,162710	
3,520000	0,66	-0,159840	
3,531000	0,66	-0,159560	
3,542000	0,66	-0,162610	
3,553000	0,66	-0,165940	
3,564000	0,66	-0,165490	
3,575000	0,66	-0,166090	
3,586000	0,66	-0,166390	
3,597000	0,66	-0,162910	
3,608000	0,66	-0,163910	
3,619000	0,66	-0,164640	
3,630000	0,66	-0,162790	
3,641000	0,66	-0,163520	
3,652000	0,66	-0,164110	
3,663000	0,66	-0,161460	
3,674000	0,66	-0,161750	
3,685000	0,66	-0,159770	
3,696000	0,66	-0,158080	
3,707000	0,66	-0,159430	
3,718000	0,66	-0,162330	
3,729000	0,66	-0,163050	
3,740000	0,66	-0,160910	
3,751000	0,66	-0,159030	
3,762000	0,66	-0,158750	
3,773000	0,66	-0,160760	
3,784000	0,66	-0,163730	
3,795000	0,66	-0,162230	
3,806000	0,66	-0,160830	
3,817000	0,66	-0,161770	
3,828000	0,66	-0,160370	
3,839000	0,66	-0,159040	
3,850000	0,66	-0,159340	
3,861000	0,66	-0,159890	
3,872000	0,66	-0,162190	
3,883000	0,66	-0,161620	
3,894000	0,66	-0,157800	
3,905000	0,66	-0,156520	
3,916000	0,66	-0,157180	
3,927000	0,66	-0,159270	
3,938000	0,66	-0,161570	
3,949000	0,66	-0,161660	
3,960000	0,66	-0,159460	
3,971000	0,66	-0,160370	
3,982000	0,66	-0,162000	
3,993000	0,66	-0,161450	
4,004000	0,66	-0,159380	
4,015000	0,66	-0,160740	
4,026000	0,66	-0,159600	
4,037000	0,66	-0,158960	
4,048000	0,66	-0,160730	
4,059000	0,66	-0,163290	
4,070000	0,66	-0,161010	
4,081000	0,66	-0,159310	
4,092000	0,66	-0,160650	
4,103000	0,66	-0,159390	
4,114000	0,66	-0,156930	
4,125000	0,66	-0,156290	
4,136000	0,66	-0,154660	
4,147000	0,66	-0,154400	
4,158000	0,66	-0,157010	
4,169000	0,66	-0,157310	
4,180000	0,66	-0,155480	
4,191000	0,66	-0,157620	
4,202000	0,66	-0,156670	
4,213000	0,66	-0,153220	
4,224000	0,66	-0,153570	
4,235000	0,66	-0,157810	
4,246000	0,66	-0,157570	
4,257000	0,66	-0,160000	
4,268000	0,66	-0,161640	
4,279000	0,66	-0,159230	
4,290000	0,66	-0,159830	
4,301000	0,66	-0,158700	
4,312000	0,66	-0,157670	
4,323000	0,66	-0,155940	
4,334000	0,66	-0,155710	
4,345000	0,66	-0,157610	
4,356000	0,66	-0,157440	
4,367000	0,66	-0,157530	
4,378000	0,66	-0,155130	
4,389000	0,66	-0,154360	
4,400000	0,66	-0,156060	
4,411000	0,66	-0,157610	
4,422000	0,66	-0,157900	
4,433000	0,66	-0,157460	
4,444000	0,66	-0,154970	
4,455000	0,66	-0,152670	
4,466000	0,66	-0,152900	
4,477000	0,66	-0,154350	
4,488000	0,66	-0,153750	
4,499000	0,66	-0,153130	
4,510000	0,66	-0,154450	
4,521000	0,66	-0,156030	
4,532000	0,66	-0,155690	
4,543000	0,66	-0,154620	
4,554000	0,66	-0,157380	
4,565000	0,66	-0,160900	
4,576000	0,66	-0,157620	
4,587000	0,66	-0,152790	
4,598000	0,66	-0,151630	
4,609000	0,66	-0,151950	
4,620000	0,66	-0,153290	
4,631000	0,66	-0,151130	
4,642000	0,66	-0,151320	
4,653000	0,66	-0,155610	
4,664000	0,66	-0,153450	
4,675000	0,66	-0,152260	
4,686000	0,66	-0,152480	
4,697000	0,66	-0,150360	
4,708000	0,66	-0,151310	
4,719000	0,66	-0,152380	
4,730000	0,66	-0,152520	
4,741000	0,66	-0,152750	
4,752000	0,66	-0,154290	
4,763000	0,66	-0,154810	
4,774000	0,66	-0,154900	
4,785000	0,66	-0,156080	
4,796000	0,66	-0,152310	
4,807000	0,66	-0,151730	
4,818000	0,66	-0,151090	
4,829000	0,66	-0,153340	
4,840000	0,66	-0,153850	
4,851000	0,66	-0,152570	
4,862000	0,66	-0,152020	
4,873000	0,66	-0,149570	
4,884000	0,66	-0,150770	
4,895000	0,66	-0,153330	
4,906000	0,66	-0,152650	
4,917000	0,66	-0,150650	
4,928000	0,66	-0,150500	
4,939000	0,66	-0,150630	
4,950000	0,66	-0,151850	
4,961000	0,66	-0,153520	
4,972000	0,66	-0,151210	
4,983000	0,66	-0,150150	
4,994000	0,66	-0,149670	
5,005000	0,66	-0,147310	
5,016000	0,66	-0,149590	
5,027000	0,66	-0,150370	
5,038000	0,66	-0,149810	
5,049000	0,66	-0,151240	
5,060000	0,66	-0,153160	
5,071000	0,66	-0,154280	
5,082000	0,66	-0,154270	
5,093000	0,66	-0,154160	
5,104000	0,66	-0,154120	
5,115000	0,66	-0,153820	
5,126000	0,66	-0,152170	
5,137000	0,66	-0,150250	
5,148000	0,66	-0,150560	
5,159000	0,66	-0,151990	
5,170000	0,66	-0,152300	
5,181000	0,66	-0,151940	
5,192000	0,66	-0,151300	
5,203000	0,66	-0,152440	
5,214000	0,66	-0,155000	
5,225000	0,66	-0,154180	
5,236000	0,66	-0,149620	
5,247000	0,66	-0,145780	
5,258000	0,66	-0,144920	
5,269000	0,66	-0,145270	
5,280000	0,66	-0,143520	
5,291000	0,66	-0,142130	
5,302000	0,66	-0,143660	
5,313000	0,66	-0,142720	
5,324000	0,66	-0,139630	
5,335000	0,66	-0,138950	
5,346000	0,66	-0,139740	
5,357000	0,66	-0,139490	
5,368000	0,66	-0,137330	
5,379000	0,66	-0,133110	
5,390000	0,66	-0,130580	
5,401000	0,66	-0,131170	
5,412000	0,66	-0,130140	
5,423000	0,66	-0,126230	
5,434000	0,66	-0,120680	
5,445000	0,66	-0,116860	
5,456000	0,66	-0,109160	
5,467000	0,66	-0,103940	
5,478000	0,66	-0,098710	
5,489000	0,66	-0,093340	
5,500000	0,66	-0,089550	
5,511000	0,66	-0,083840	
5,522000	0,66	-0,080010	
5,533000	0,66	-0,075810	
5,544000	0,66	-0,073540	
5,555000	0,66	-0,070910	
5,566000	0,66	-0,069140	
5,577000	0,66	-0,066300	
5,588000	0,66	-0,063540	
5,599000	0,66	-0,064790	
5,610000	0,66	-0,064610	
5,621000	0,66	-0,063780	
5,632000	0,66	-0,066700	
5,643000	0,66	-0,067010	
5,654000	0,66	-0,066590	
5,665000	0,66	-0,067530	
5,676000	0,66	-0,066950	
5,687000	0,66	-0,070010	
5,698000	0,66	-0,075870	
5,709000	0,66	-0,081690	
5,720000	0,66	-0,087580	
5,731000	0,66	-0,092410	
5,742000	0,66	-0,096080	
5,753000	0,66	-0,096820	
5,764000	0,66	-0,094010	
5,775000	0,66	-0,094110	
5,786000	0,66	-0,094540	
5,797000	0,66	-0,091590	
5,808000	0,66	-0,090880	
5,819000	0,66	-0,091270	
5,830000	0,66	-0,093300	
5,841000	0,66	-0,093940	
5,852000	0,66	-0,092940	
5,863000	0,66	-0,093180	
5,874000	0,66	-0,091030	
5,885000	0,66	-0,087180	
5,896000	0,66	-0,087540	
5,907000	0,66	-0,086810	
5,918000	0,66	-0,084800	
5,929000	0,66	-0,081370	
5,940000	0,66	-0,078290	
5,951000	0,66	-0,077910	
5,962000	0,66	-0,076220	
5,973000	0,66	-0,074230	
5,984000	0,66	-0,071530	
5,995000	0,66	-0,070250	
6,006000	0,66	-0,070260	
6,017000	0,66	-0,067460	
6,028000	0,66	-0,067260	
6,039000	0,66	-0,066950	
6,050000	0,66	-0,064890	
6,061000	0,66	-0,060630	
6,072000	0,66	-0,056570	
6,083000	0,66	-0,054680	
6,094000	0,66	-0,052410	
6,105000	0,66	-0,052310	
6,116000	0,66	-0,049860	
6,127000	0,66	-0,048220	
6,138000	0,66	-0,043370	
6,149000	0,66	-0,037920	
6,160000	0,66	-0,033760	
6,171000	0,66	-0,031120	
6,182000	0,66	-0,029650	
6,193000	0,66	-0,029760	
6,204000	0,66	-0,027470	
6,215000	0,66	-0,027220	
6,226000	0,66	-0,027230	
6,237000	0,66	-0,025230	
6,248000	0,66	-0,023680	
6,259000	0,66	-0,019470	
6,270000	0,66	-0,012320	
6,281000	0,66	-0,011290	
6,292000	0,66	-0,006220	
6,303000	0,66	-0,000050	
6,314000	0,66	0,000600	
6,325000	0,66	0,002190	
6,336000	0,66	0,002470	
6,347000	0,66	0,007710	
6,358000	0,66	0,009440	
6,369000	0,66	0,008840	
6,380000	0,66	0,012770	
6,391000	0,66	0,019020	
6,402000	0,66	0,022370	
6,413000	0,66	0,022980	
6,424000	0,66	0,023010	
6,435000	0,66	0,022450	
6,446000	0,66	0,026340	
6,457000	0,66	0,029140	
6,468000	0,66	0,031100	
6,479000	0,66	0,036250	
6,490000	0,66	0,040390	
6,501000	0,66	0,041220	
6,512000	0,66	0,043820	
6,523000	0,66	0,044880	
6,534000	0,66	0,046610	
6,545000	0,66	0,050190	
6,556000	0,66	0,052320	
6,567000	0,66	0,054600	
6,578000	0,66	0,059450	
6,589000	0,66	0,063470	
6,600000	0,66	0,066410	
6,611000	0,66	0,068320	
6,622000	0,66	0,066810	
6,633000	0,66	0,067850	
6,644000	0,66	0,071970	
6,655000	0,66	0,074890	
6,666000	0,66	0,077340	
6,677000	0,66	0,079920	
6,688000	0,66	0,083230	
6,699000	0,66	0,084930	
6,710000	0,66	0,085340	
6,721000	0,66	0,086460	
6,732000	0,66	0,089460	
6,743000	0,66	0,091580	
6,754000	0,66	0,090550	
6,765000	0,66	0,092490	
6,776000	0,66	0,098920	
6,787000	0,66	0,104040	
6,798000	0,66	0,106350	
6,809000	0,66	0,107090	
6,820000	0,66	0,105850	
6,831000	0,66	0,104180	
6,842000	0,66	0,104710	
6,853000	0,66	0,107420	
6,864000	0,66	0,108720	
6,875000	0,66	0,110980	
6,886000	0,66	0,113380	
6,897000	0,66	0,115860	
6,908000	0,66	0,120920	
6,919000	0,66	0,123950	
6,930000	0,66	0,124280	
6,941000	0,66	0,127050	
6,952000	0,66	0,129490	
6,963000	0,66	0,132510	
6,974000	0,66	0,131910	
6,985000	0,66	0,135810	
6,996000	0,66	0,137950	
7,007000	0,66	0,136770	
7,018000	0,66	0,135190	
7,029000	0,66	0,133860	
7,040000	0,66	0,134830	
7,051000	0,66	0,135440	
7,062000	0,66	0,134880	
7,073000	0,66	0,137110	
7,084000	0,66	0,139970	
7,095000	0,66	0,144920	
7,106000	0,66	0,146070	
7,117000	0,66	0,147240	
7,128000	0,66	0,149060	
7,139000	0,66	0,154380	
7,150000	0,66	0,156290	
7,161000	0,66	0,153760	
7,172000	0,66	0,153640	
7,183000	0,66	0,157390	
7,194000	0,66	0,159680	
7,205000	0,66	0,161940	
7,216000	0,66	0,163560	
7,227000	0,66	0,163030	
7,238000	0,66	0,162790	
7,249000	0,66	0,163760	
7,260000	0,66	0,165950	
7,271000	0,66	0,169240	
7,282000	0,66	0,171260	
7,293000	0,66	0,173870	
7,304000	0,66	0,177170	
7,315000	0,66	0,181130	
7,326000	0,66	0,182510	
7,337000	0,66	0,181410	
7,348000	0,66	0,179290	
7,359000	0,66	0,178450	
7,370000	0,66	0,180190	
7,381000	0,66	0,181640	
7,392000	0,66	0,183930	
7,403000	0,66	0,186590	
7,414000	0,66	0,188610	
7,425000	0,66	0,190040	
7,436000	0,66	0,191480	
7,447000	0,66	0,191870	
7,458000	0,66	0,193240	
7,469000	0,66	0,194750	
7,480000	0,66	0,196370	
7,491000	0,66	0,195700	
7,502000	0,66	0,198040	
7,513000	0,66	0,201860	
7,524000	0,66	0,203720	
7,535000	0,66	0,202730	
7,546000	0,66	0,204770	
7,557000	0,66	0,209530	
7,568000	0,66	0,211040	
7,579000	0,66	0,214780	
7,590000	0,66	0,218030	
7,601000	0,66	0,219840	
7,612000	0,66	0,220910	
7,623000	0,66	0,220670	
7,634000	0,66	0,223470	
7,645000	0,66	0,223340	
7,656000	0,66	0,223990	
7,667000	0,66	0,227320	
7,678000	0,66	0,228380	
7,689000	0,66	0,232070	
7,700000	0,66	0,238580	
7,711000	0,66	0,243520	
7,722000	0,66	0,245710	
7,733000	0,66	0,243630	
7,744000	0,66	0,244950	
7,755000	0,66	0,246850	
7,766000	0,66	0,247100	
7,777000	0,66	0,249510	
7,788000	0,66	0,251850	
7,799000	0,66	0,256930	
7,810000	0,66	0,259050	
7,821000	0,66	0,259780	
7,832000	0,66	0,259490	
7,843000	0,66	0,262130	
7,854000	0,66	0,264230	
7,865000	0,66	0,266640	
7,876000	0,66	0,267260	
7,887000	0,66	0,266530	
7,898000	0,66	0,265640	
7,909000	0,66	0,268280	
7,920000	0,66	0,271030	
7,931000	0,66	0,273360	
7,942000	0,66	0,277240	
7,953000	0,66	0,280210	
7,964000	0,66	0,283220	
7,975000	0,66	0,284380	
7,986000	0,66	0,286120	
7,997000	0,66	0,287720	
8,008000	0,66	0,288050	
8,019000	0,66	0,288180	
8,030000	0,66	0,289830	
8,041000	0,66	0,292270	
8,052000	0,66	0,294890	
8,063000	0,66	0,298040	
8,074000	0,66	0,300500	
8,085000	0,66	0,302550	
8,096000	0,66	0,305510	
8,107000	0,66	0,309520	
8,118000	0,66	0,311070	
8,129000	0,66	0,310180	
8,140000	0,66	0,308200	
8,151000	0,66	0,310020	
8,162000	0,66	0,313670	
8,173000	0,66	0,314150	
8,184000	0,66	0,314510	
8,195000	0,66	0,316650	
8,206000	0,66	0,318350	
8,217000	0,66	0,320510	
8,228000	0,66	0,322940	
8,239000	0,66	0,324410	
8,250000	0,66	0,326590	
8,261000	0,66	0,325650	
8,272000	0,66	0,329080	
8,283000	0,66	0,332740	
8,294000	0,66	0,337200	
8,305000	0,66	0,339910	
8,316000	0,66	0,345330	
8,327000	0,66	0,345130	
8,338000	0,66	0,346800	
8,349000	0,66	0,350000	
8,360000	0,66	0,357540	
8,371000	0,66	0,363750	
8,382000	0,66	0,365590	
8,393000	0,66	0,365290	
8,404000	0,66	0,369030	
8,415000	0,66	0,374250	
8,426000	0,66	0,375960	
8,437000	0,66	0,374550	
8,448000	0,66	0,374600	
8,459000	0,66	0,376500	
8,470000	0,66	0,377880	
8,481000	0,66	0,376670	
8,492000	0,66	0,378990	
8,503000	0,66	0,382550	
8,514000	0,66	0,386720	
8,525000	0,66	0,386330	
8,536000	0,66	0,387650	
8,547000	0,66	0,390820	
8,558000	0,66	0,392150	
8,569000	0,66	0,393450	
8,580000	0,66	0,396430	
8,591000	0,66	0,400040	
8,602000	0,66	0,402250	
8,613000	0,66	0,403480	
8,624000	0,66	0,402950	
8,635000	0,66	0,403290	
8,646000	0,66	0,407290	
8,657000	0,66	0,412460	
8,668000	0,66	0,413690	
8,679000	0,66	0,415040	
8,690000	0,66	0,419510	
8,701000	0,66	0,422680	
8,712000	0,66	0,423060	
8,723000	0,66	0,424750	
8,734000	0,66	0,427940	
8,745000	0,66	0,426150	
8,756000	0,66	0,424330	
8,767000	0,66	0,429290	
8,778000	0,66	0,436180	
8,789000	0,66	0,442500	
8,800000	0,66	0,445920	
8,811000	0,66	0,446130	
8,822000	0,66	0,446850	
8,833000	0,66	0,451160	
8,844000	0,66	0,455730	
8,855000	0,66	0,464340	
8,866000	0,66	0,470910	
8,877000	0,66	0,477630	
8,888000	0,66	0,488270	
8,899000	0,66	0,499550	
8,910000	0,66	0,509560	
8,921000	0,66	0,519670	
8,932000	0,66	0,533150	
8,943000	0,66	0,548940	
8,954000	0,66	0,564510	
8,965000	0,66	0,578140	
8,976000	0,66	0,593020	
8,987000	0,66	0,603210	
8,998000	0,66	0,613860	
9,009000	0,66	0,624070	
9,020000	0,66	0,635530	
9,031000	0,66	0,643360	
9,042000	0,66	0,650140	
9,053000	0,66	0,648560	
9,064000	0,66	0,645190	
9,075000	0,66	0,643480	
9,086000	0,66	0,639390	
9,097000	0,66	0,632700	
9,108000	0,66	0,623600	
9,119000	0,66	0,613000	
9,130000	0,66	0,604540	
9,141000	0,66	0,595840	
9,152000	0,66	0,587770	
9,163000	0,66	0,583330	
9,174000	0,66	0,581080	
9,185000	0,66	0,579260	
9,196000	0,66	0,577230	
9,207000	0,66	0,577230	
9,218000	0,66	0,576390	
9,229000	0,66	0,577500	
9,240000	0,66	0,578540	
9,251000	0,66	0,576460	
9,262000	0,66	0,576890	
9,273000	0,66	0,579130	
9,284000	0,66	0,580010	
9,295000	0,66	0,581650	
9,306000	0,66	0,588880	
9,317000	0,66	0,595880	
9,328000	0,66	0,601750	
9,339000	0,66	0,611840	
9,350000	0,66	0,624430	
9,361000	0,66	0,639540	
9,372000	0,66	0,659560	
9,383000	0,66	0,684400	
9,394000	0,66	0,709770	
9,405000	0,66	0,734320	
9,416000	0,66	0,757960	
9,427000	0,66	0,776190	
9,438000	0,66	0,787570	
9,449000	0,66	0,793840	
9,460000	0,66	0,792500	
9,471000	0,66	0,780140	
9,482000	0,66	0,759090	
9,493000	0,66	0,736080	
9,504000	0,66	0,712990	
9,515000	0,66	0,691530	
9,526000	0,66	0,676730	
9,537000	0,66	0,666580	
9,548000	0,66	0,657050	
9,559000	0,66	0,648660	
9,570000	0,66	0,641750	
9,581000	0,66	0,642290	
9,592000	0,66	0,639660	
9,603000	0,66	0,637070	
9,614000	0,66	0,634770	
9,625000	0,66	0,633720	
9,636000	0,66	0,635260	
9,647000	0,66	0,635430	
9,658000	0,66	0,635730	
9,669000	0,66	0,635970	
9,680000	0,66	0,633160	
9,691000	0,66	0,633610	
9,702000	0,66	0,633560	
9,713000	0,66	0,632970	
9,724000	0,66	0,635730	
9,735000	0,66	0,637890	
9,746000	0,66	0,638160	
9,757000	0,66	0,640510	
9,768000	0,66	0,640240	
9,779000	0,66	0,639930	
9,790000	0,66	0,645170	
9,801000	0,66	0,650540	
9,812000	0,66	0,650010	
9,823000	0,66	0,656310	
9,834000	0,66	0,656290	
9,845000	0,66	0,659310	
9,856000	0,66	0,660040	
9,867000	0,66	0,662210	
9,878000	0,66	0,662440	
9,889000	0,66	0,661360	
9,900000	0,66	0,664710	
9,911000	0,66	0,668790	
9,922000	0,66	0,671190	
9,933000	0,66	0,670410	
9,944000	0,66	0,669250	
9,955000	0,66	0,671640	
9,966000	0,66	0,672200	
9,977000	0,66	0,674370	
9,988000	0,66	0,673370	
9,999000	0,66	0,672670	
10,010000	0,66	0,675300	
10,021000	0,66	0,679830	
10,032000	0,66	0,682420	
10,043000	0,66	0,684060	
10,054000	0,66	0,687150	
10,065000	0,66	0,686340	
10,076000	0,66	0,689040	
10,087000	0,66	0,693580	
10,098000	0,66	0,697100	
10,109000	0,66	0,702570	
10,120000	0,66	0,706600	
10,131000	0,66	0,710030	
10,142000	0,66	0,712880	
10,153000	0,66	0,714880	
10,164000	0,66	0,720400	
10,175000	0,66	0,724350	
10,186000	0,66	0,723470	
10,197000	0,66	0,726330	
10,208000	0,66	0,731700	
10,219000	0,66	0,734030	
10,230000	0,66	0,737300	
10,241000	0,66	0,742690	
10,252000	0,66	0,747300	
10,263000	0,66	0,749940	
10,274000	0,66	0,754030	
10,285000	0,66	0,755000	
10,296000	0,66	0,755270	
10,307000	0,66	0,755660	
10,318000	0,66	0,756840	
10,329000	0,66	0,760270	
10,340000	0,66	0,763050	
10,351000	0,66	0,766940	
10,362000	0,66	0,773990	
10,373000	0,66	0,778970	
10,384000	0,66	0,787600	
10,395000	0,66	0,793140	
10,406000	0,66	0,795130	
10,417000	0,66	0,801580	
10,428000	0,66	0,809570	
10,439000	0,66	0,816920	
10,450000	0,66	0,821560	
10,461000	0,66	0,823690	
10,472000	0,66	0,825120	
10,483000	0,66	0,823930	
10,494000	0,66	0,820890	
10,505000	0,66	0,816110	
10,516000	0,66	0,810480	
10,527000	0,66	0,804680	
10,538000	0,66	0,800680	
10,549000	0,66	0,799890	
10,560000	0,66	0,799830	
10,571000	0,66	0,797080	
10,582000	0,66	0,798380	
10,593000	0,66	0,799400	
10,604000	0,66	0,801890	
10,615000	0,66	0,802380	
10,626000	0,66	0,803440	
10,637000	0,66	0,802740	
10,648000	0,66	0,804390	
10,659000	0,66	0,807080	
10,670000	0,66	0,805110	
10,681000	0,66	0,802360	
10,692000	0,66	0,801980	
10,703000	0,66	0,804400	
10,714000	0,66	0,808330	
10,725000	0,66	0,811900	
10,736000	0,66	0,812110	
10,747000	0,66	0,812710	
10,758000	0,66	0,813110	
10,769000	0,66	0,814420	
10,780000	0,66	0,814260	
10,791000	0,66	0,816270	
10,802000	0,66	0,822150	
10,813000	0,66	0,827880	
10,824000	0,66	0,831360	
10,835000	0,66	0,831500	
10,846000	0,66	0,832500	
10,857000	0,66	0,837110	
10,868000	0,66	0,839540	
10,879000	0,66	0,840500	
10,890000	0,66	0,842850	
10,901000	0,66	0,843590	
10,912000	0,66	0,846650	
10,923000	0,66	0,848660	
10,934000	0,66	0,852640	
10,945000	0,66	0,859360	
10,956000	0,66	0,859710	
10,967000	0,66	0,860480	
10,978000	0,66	0,864210	
10,989000	0,66	0,870080	
11,000000	0,66	0,875050	
11,011000	0,66	0,878040	
11,022000	0,66	0,879180	
11,033000	0,66	0,879720	
11,044000	0,66	0,880670	
11,055000	0,66	0,883940	
11,066000	0,66	0,885060	
11,077000	0,66	0,883500	
11,088000	0,66	0,880900	
11,099000	0,66	0,883570	
11,110000	0,66	0,886980	
11,121000	0,66	0,890110	
11,132000	0,66	0,890980	
11,143000	0,66	0,892310	
11,154000	0,66	0,894440	
11,165000	0,66	0,894780	
11,176000	0,66	0,898790	
11,187000	0,66	0,901420	
11,198000	0,66	0,900030	
11,209000	0,66	0,899820	
11,220000	0,66	0,901090	
11,231000	0,66	0,904570	
11,242000	0,66	0,902330	
11,253000	0,66	0,901360	
11,264000	0,66	0,903300	
11,275000	0,66	0,906640	
11,286000	0,66	0,909160	
11,297000	0,66	0,912030	
11,308000	0,66	0,916200	
11,319000	0,66	0,919830	
11,330000	0,66	0,926520	
11,341000	0,66	0,935280	
11,352000	0,66	0,947230	
11,363000	0,66	0,956530	
11,374000	0,66	0,961350	
11,385000	0,66	0,964520	
11,396000	0,66	0,966940	
11,407000	0,66	0,966690	
11,418000	0,66	0,964550	
11,429000	0,66	0,956010	
11,440000	0,66	0,947710	
11,451000	0,66	0,939890	
11,462000	0,66	0,932510	
11,473000	0,66	0,927310	
11,484000	0,66	0,924190	
11,495000	0,66	0,919150	
11,506000	0,66	0,912600	
11,517000	0,66	0,908770	
11,528000	0,66	0,908350	
11,539000	0,66	0,908150	
11,550000	0,66	0,906510	
11,561000	0,66	0,904350	
11,572000	0,66	0,901790	
11,583000	0,66	0,900970	
11,594000	0,66	0,901280	
11,605000	0,66	0,900230	
11,616000	0,66	0,898020	
11,627000	0,66	0,897950	
11,638000	0,66	0,900640	
11,649000	0,66	0,901340	
11,660000	0,66	0,900640	
11,671000	0,66	0,901730	
11,682000	0,66	0,902900	
11,693000	0,66	0,903480	
11,704000	0,66	0,904830	
11,715000	0,66	0,907770	
11,726000	0,66	0,907770	
11,737000	0,66	0,910310	
11,748000	0,66	0,911860	
11,759000	0,66	0,910270	
11,770000	0,66	0,914710	
11,781000	0,66	0,919450	
11,792000	0,66	0,922390	
11,803000	0,66	0,924080	
11,814000	0,66	0,925420	
11,825000	0,66	0,930610	
11,836000	0,66	0,933160	
11,847000	0,66	0,935940	
11,858000	0,66	0,937800	
11,869000	0,66	0,935430	
11,880000	0,66	0,936240	
11,891000	0,66	0,938990	
11,902000	0,66	0,942710	
11,913000	0,66	0,944650	
11,924000	0,66	0,942950	
11,935000	0,66	0,943390	
11,946000	0,66	0,943640	
11,957000	0,66	0,946770	
11,968000	0,66	0,952210	
11,979000	0,66	0,957120	
11,990000	0,66	0,963840	
12,001000	0,66	0,971960	
12,012000	0,66	0,979650	
12,023000	0,66	0,984110	
12,034000	0,66	0,986920	
12,045000	0,66	0,992170	
12,056000	0,66	0,996320	
12,067000	0,66	1,002580	
12,078000	0,66	1,005330	
12,089000	0,66	1,006960	
12,100000	0,66	1,007530	
12,111000	0,66	1,007460	
12,122000	0,66	1,007890	
12,133000	0,66	1,004750	
12,144000	0,66	1,001710	
12,155000	0,66	0,999350	
12,166000	0,66	0,995870	
12,177000	0,66	0,991840	
12,188000	0,66	0,986940	
12,199000	0,66	0,982560	
12,210000	0,66	0,977800	
12,221000	0,66	0,972840	
12,232000	0,66	0,970650	
12,243000	0,66	0,967700	
12,254000	0,66	0,963060	
12,265000	0,66	0,958880	
12,276000	0,66	0,952050	
12,287000	0,66	0,946420	
12,298000	0,66	0,946300	
12,309000	0,66	0,946160	
12,320000	0,66	0,944050	
12,331000	0,66	0,944500	
12,342000	0,66	0,943760	
12,353000	0,66	0,944550	
12,364000	0,66	0,945240	
12,375000	0,66	0,943930	
12,386000	0,66	0,939610	
12,397000	0,66	0,936600	
12,408000	0,66	0,935900	
12,419000	0,66	0,935450	
12,430000	0,66	0,933040	
12,441000	0,66	0,933500	
12,452000	0,66	0,931240	
12,463000	0,66	0,930930	
12,474000	0,66	0,931660	
12,485000	0,66	0,929090	
12,496000	0,66	0,930050	
12,507000	0,66	0,928870	
12,518000	0,66	0,929000	
12,529000	0,66	0,928240	
12,540000	0,66	0,929950	
12,551000	0,66	0,928030	
12,562000	0,66	0,929020	
12,573000	0,66	0,930530	
12,584000	0,66	0,933200	
12,595000	0,66	0,935050	
12,606000	0,66	0,936490	
12,617000	0,66	0,939410	
12,628000	0,66	0,940270	
12,639000	0,66	0,942330	
12,650000	0,66	0,945320	
12,661000	0,66	0,949930	
12,672000	0,66	0,955110	
12,683000	0,66	0,959520	
12,694000	0,66	0,965910	
12,705000	0,66	0,964410	
12,716000	0,66	0,966650	
12,727000	0,66	0,969370	
12,738000	0,66	0,972110	
12,749000	0,66	0,972450	
12,760000	0,66	0,976580	
12,771000	0,66	0,983540	
12,782000	0,66	0,989240	
12,793000	0,66	0,991940	
12,804000	0,66	0,994060	
12,815000	0,66	0,995470	
12,826000	0,66	0,992200	
12,837000	0,66	0,990350	
12,848000	0,66	0,990370	
12,859000	0,66	0,991100	
12,870000	0,66	0,992270	
12,881000	0,66	0,993630	
12,892000	0,66	0,994130	
12,903000	0,66	0,995010	
12,914000	0,66	0,994640	
12,925000	0,66	0,992000	
12,936000	0,66	0,990970	
12,947000	0,66	0,991050	
12,958000	0,66	0,992130	
12,969000	0,66	0,994070	
12,980000	0,66	0,994510	
12,991000	0,66	0,997020	
13,002000	0,66	1,001040	
13,013000	0,66	1,002700	
13,024000	0,66	1,004060	
13,035000	0,66	1,007500	
13,046000	0,66	1,007740	
13,057000	0,66	1,005790	
13,068000	0,66	1,010010	
13,079000	0,66	1,013580	
13,090000	0,66	1,016180	
13,101000	0,66	1,019810	
13,112000	0,66	1,023630	
13,123000	0,66	1,026250	
13,134000	0,66	1,032030	
13,145000	0,66	1,036760	
13,156000	0,66	1,040460	
13,167000	0,66	1,042920	
13,178000	0,66	1,044600	
13,189000	0,66	1,046920	
13,200000	0,66	1,049040	
13,211000	0,66	1,050820	
13,222000	0,66	1,053920	
13,233000	0,66	1,062010	
13,244000	0,66	1,070860	
13,255000	0,66	1,077080	
13,266000	0,66	1,081930	
13,277000	0,66	1,084550	
13,288000	0,66	1,088450	
13,299000	0,66	1,091500	
13,310000	0,66	1,091250	
13,321000	0,66	1,093980	
13,332000	0,66	1,098010	
13,343000	0,66	1,101830	
13,354000	0,66	1,103960	
13,365000	0,66	1,106500	
13,376000	0,66	1,111880	
13,387000	0,66	1,114900	
13,398000	0,66	1,118520	
13,409000	0,66	1,121860	
13,420000	0,66	1,127770	
13,431000	0,66	1,131980	
13,442000	0,66	1,138720	
13,453000	0,66	1,142180	
13,464000	0,66	1,147970	
13,475000	0,66	1,154080	
13,486000	0,66	1,159530	
13,497000	0,66	1,165760	
13,508000	0,66	1,168940	
13,519000	0,66	1,171520	
13,530000	0,66	1,175110	
13,541000	0,66	1,178720	
13,552000	0,66	1,183300	
13,563000	0,66	1,186270	
13,574000	0,66	1,190140	
13,585000	0,66	1,195810	
13,596000	0,66	1,199740	
13,607000	0,66	1,203660	
13,618000	0,66	1,208970	
13,629000	0,66	1,213770	
13,640000	0,66	1,218350	
13,651000	0,66	1,220710	
13,662000	0,66	1,221790	
13,673000	0,66	1,227220	
13,684000	0,66	1,232660	
13,695000	0,66	1,234590	
13,706000	0,66	1,235020	
13,717000	0,66	1,236680	
13,728000	0,66	1,241420	
13,739000	0,66	1,243180	
13,750000	0,66	1,246510	
13,761000	0,66	1,250430	
13,772000	0,66	1,256230	
13,783000	0,66	1,259410	
13,794000	0,66	1,261740	
13,805000	0,66	1,263210	
13,816000	0,66	1,266250	
13,827000	0,66	1,271290	
13,838000	0,66	1,274900	
13,849000	0,66	1,281390	
13,860000	0,66	1,284760	
13,871000	0,66	1,284170	
13,882000	0,66	1,286050	
13,893000	0,66	1,292120	
13,904000	0,66	1,295890	
13,915000	0,66	1,299190	
13,926000	0,66	1,302160	
13,937000	0,66	1,308400	
13,948000	0,66	1,314950	
13,959000	0,66	1,316800	
13,970000	0,66	1,315620	
13,981000	0,66	1,317270	
13,992000	0,66	1,322720	
14,003000	0,66	1,326490	
14,014000	0,66	1,326750	
14,025000	0,66	1,329170	
14,036000	0,66	1,333520	
14,047000	0,66	1,336290	
14,058000	0,66	1,340430	
14,069000	0,66	1,343370	
14,080000	0,66	1,344340	
14,091000	0,66	1,346770	
14,102000	0,66	1,351190	
14,113000	0,66	1,355690	
14,124000	0,66	1,358300	
14,135000	0,66	1,360710	
14,146000	0,66	1,362330	
14,157000	0,66	1,364190	
14,168000	0,66	1,368360	
14,179000	0,66	1,374310	
14,190000	0,66	1,384330	
14,201000	0,66	1,393470	
14,212000	0,66	1,401390	
14,223000	0,66	1,411330	
14,234000	0,66	1,424820	
14,245000	0,66	1,440770	
14,256000	0,66	1,459230	
14,267000	0,66	1,479730	
14,278000	0,66	1,499830	
14,289000	0,66	1,517700	
14,300000	0,66	1,532960	
14,311000	0,66	1,544240	
14,322000	0,66	1,552640	
14,333000	0,66	1,559930	
14,344000	0,66	1,561470	
14,355000	0,66	1,556150	
14,366000	0,66	1,546880	
14,377000	0,66	1,534340	
14,388000	0,66	1,520240	
14,399000	0,66	1,501330	
14,410000	0,66	1,481010	
14,421000	0,66	1,462420	
14,432000	0,66	1,441120	
14,443000	0,66	1,423670	
14,454000	0,66	1,404160	
14,465000	0,66	1,388030	
14,476000	0,66	1,374920	
14,487000	0,66	1,366830	
14,498000	0,66	1,356420	
14,509000	0,66	1,348760	
14,520000	0,66	1,337340	
14,531000	0,66	1,329470	
14,542000	0,66	1,324050	
14,553000	0,66	1,319560	
14,564000	0,66	1,315350	
14,575000	0,66	1,310900	
14,586000	0,66	1,308790	
14,597000	0,66	1,303940	
14,608000	0,66	1,301860	
14,619000	0,66	1,296100	
14,630000	0,66	1,292380	
14,641000	0,66	1,289270	
14,652000	0,66	1,283950	
14,663000	0,66	1,280650	
14,674000	0,66	1,276270	
14,685000	0,66	1,273540	
14,696000	0,66	1,267160	
14,707000	0,66	1,265550	
14,718000	0,66	1,264640	
14,729000	0,66	1,263150	
14,740000	0,66	1,262110	
14,751000	0,66	1,261070	
14,762000	0,66	1,261030	
14,773000	0,66	1,259440	
14,784000	0,66	1,256500	
14,795000	0,66	1,254700	
14,806000	0,66	1,251480	
14,817000	0,66	1,251760	
14,828000	0,66	1,251600	
14,839000	0,66	1,249800	
14,850000	0,66	1,247810	
14,861000	0,66	1,243940	
14,872000	0,66	1,241860	
14,883000	0,66	1,241820	
14,894000	0,66	1,245340	
14,905000	0,66	1,245140	
14,916000	0,66	1,244580	
14,927000	0,66	1,246900	
14,938000	0,66	1,247160	
14,949000	0,66	1,246850	
14,960000	0,66	1,244650	
14,971000	0,66	1,243220	
14,982000	0,66	1,242700	
14,993000	0,66	1,241050	
15,004000	0,66	1,238700	
15,015000	0,66	1,236410	
15,026000	0,66	1,236190	
15,037000	0,66	1,235720	
15,048000	0,66	1,236500	
15,059000	0,66	1,238190	
15,070000	0,66	1,240310	
15,081000	0,66	1,247940	
15,092000	0,66	1,251610	
15,103000	0,66	1,249610	
15,114000	0,66	1,249200	
15,125000	0,66	1,250280	
15,136000	0,66	1,251870	
15,147000	0,66	1,251220	
15,158000	0,66	1,250780	
15,169000	0,66	1,254600	
15,180000	0,66	1,254810	
15,191000	0,66	1,255310	
15,202000	0,66	1,256760	
15,213000	0,66	1,256130	
15,224000	0,66	1,254180	
15,235000	0,66	1,253990	
15,246000	0,66	1,255320	
15,257000	0,66	1,255620	
15,268000	0,66	1,255540	
15,279000	0,66	1,253250	
15,290000	0,66	1,255320	
15,301000	0,66	1,256110	
15,312000	0,66	1,255940	
15,323000	0,66	1,258020	
15,334000	0,66	1,260130	
15,345000	0,66	1,260750	
15,356000	0,66	1,259710	
15,367000	0,66	1,259010	
15,378000	0,66	1,256180	
15,389000	0,66	1,254990	
15,400000	0,66	1,255360	
15,411000	0,66	1,254060	
15,422000	0,66	1,252620	
15,433000	0,66	1,251730	
15,444000	0,66	1,252800	
15,455000	0,66	1,253310	
15,466000	0,66	1,251800	
15,477000	0,66	1,250730	
15,488000	0,66	1,251090	
15,499000	0,66	1,254440	
15,510000	0,66	1,257470	
15,521000	0,66	1,257440	
15,532000	0,66	1,254340	
15,543000	0,66	1,254450	
15,554000	0,66	1,255830	
15,565000	0,66	1,258400	
15,576000	0,66	1,259110	
15,587000	0,66	1,259150	
15,598000	0,66	1,258410	
15,609000	0,66	1,255470	
15,620000	0,66	1,254130	
15,631000	0,66	1,256690	
15,642000	0,66	1,258400	
15,653000	0,66	1,259710	
15,664000	0,66	1,260140	
15,675000	0,66	1,260240	
15,686000	0,66	1,263180	
15,697000	0,66	1,265210	
15,708000	0,66	1,267320	
15,719000	0,66	1,271670	
15,730000	0,66	1,275450	
15,741000	0,66	1,279640	
15,752000	0,66	1,282090	
15,763000	0,66	1,282870	
15,774000	0,66	1,286830	
15,785000	0,66	1,292250	
15,796000	0,66	1,297050	
15,807000	0,66	1,301580	
15,818000	0,66	1,307120	
15,829000	0,66	1,312830	
15,840000	0,66	1,318430	
15,851000	0,66	1,324310	
15,862000	0,66	1,331530	
15,873000	0,66	1,343050	
15,884000	0,66	1,357690	
15,895000	0,66	1,370960	
15,906000	0,66	1,386520	
15,917000	0,66	1,406040	
15,928000	0,66	1,429710	
15,939000	0,66	1,456680	
15,950000	0,66	1,484160	
15,961000	0,66	1,511100	
15,972000	0,66	1,538470	
15,983000	0,66	1,564840	
15,994000	0,66	1,591700	
16,005000	0,66	1,615250	
16,016000	0,66	1,640940	
16,027000	0,66	1,659210	
16,038000	0,66	1,668550	
16,049000	0,66	1,680030	
16,060000	0,66	1,687370	
16,071000	0,66	1,689660	
16,082000	0,66	1,688660	
16,093000	0,66	1,685450	
16,104000	0,66	1,677720	
16,115000	0,66	1,669320	
16,126000	0,66	1,661770	
16,137000	0,66	1,650310	
16,148000	0,66	1,637830	
16,159000	0,66	1,627530	
16,170000	0,66	1,618250	
16,181000	0,66	1,608750	
16,192000	0,66	1,602390	
16,203000	0,66	1,596370	
16,214000	0,66	1,593480	
16,225000	0,66	1,590980	
16,236000	0,66	1,590760	
16,247000	0,66	1,593950	
16,258000	0,66	1,594450	
16,269000	0,66	1,597090	
16,280000	0,66	1,602340	
16,291000	0,66	1,608140	
16,302000	0,66	1,613700	
16,313000	0,66	1,616660	
16,324000	0,66	1,622200	
16,335000	0,66	1,627760	
16,346000	0,66	1,633510	
16,357000	0,66	1,637490	
16,368000	0,66	1,644350	
16,379000	0,66	1,652370	
16,390000	0,66	1,659380	
16,401000	0,66	1,666760	
16,412000	0,66	1,673640	
16,423000	0,66	1,680900	
16,434000	0,66	1,689540	
16,445000	0,66	1,697890	
16,456000	0,66	1,705200	
16,467000	0,66	1,712580	
16,478000	0,66	1,719020	
16,489000	0,66	1,723910	
16,500000	0,66	1,728330	
16,511000	0,66	1,735410	
16,522000	0,66	1,740130	
16,533000	0,66	1,745570	
16,544000	0,66	1,750680	
16,555000	0,66	1,754440	
16,566000	0,66	1,757670	
16,577000	0,66	1,758410	
16,588000	0,66	1,757710	
16,599000	0,66	1,754910	
16,610000	0,66	1,756850	
16,621000	0,66	1,757840	
16,632000	0,66	1,760120	
16,643000	0,66	1,760180	
16,654000	0,66	1,760030	
16,665000	0,66	1,762350	
16,676000	0,66	1,763380	
16,687000	0,66	1,760970	
16,698000	0,66	1,758880	
16,709000	0,66	1,762260	
16,720000	0,66	1,761860	
16,731000	0,66	1,761000	
16,742000	0,66	1,760940	
16,753000	0,66	1,756630	
16,764000	0,66	1,751440	
16,775000	0,66	1,747780	
16,786000	0,66	1,745230	
16,797000	0,66	1,741980	
16,808000	0,66	1,739810	
16,819000	0,66	1,738480	
16,830000	0,66	1,736460	
16,841000	0,66	1,733270	
16,852000	0,66	1,731760	
16,863000	0,66	1,731980	
16,874000	0,66	1,729130	
16,885000	0,66	1,726120	
16,896000	0,66	1,721890	
16,907000	0,66	1,721690	
16,918000	0,66	1,721890	
16,929000	0,66	1,716330	
16,940000	0,66	1,714710	
16,951000	0,66	1,713970	
16,962000	0,66	1,710990	
16,973000	0,66	1,710510	
16,984000	0,66	1,710890	
16,995000	0,66	1,708310	
17,006000	0,66	1,706810	
17,017000	0,66	1,705740	
17,028000	0,66	1,704110	
17,039000	0,66	1,703020	
17,050000	0,66	1,703360	
17,061000	0,66	1,705000	
17,072000	0,66	1,704630	
17,083000	0,66	1,705180	
17,094000	0,66	1,708440	
17,105000	0,66	1,709710	
17,116000	0,66	1,713210	
17,127000	0,66	1,718280	
17,138000	0,66	1,720570	
17,149000	0,66	1,724100	
17,160000	0,66	1,726710	
17,171000	0,66	1,726570	
17,182000	0,66	1,726140	
17,193000	0,66	1,727540	
17,204000	0,66	1,731510	
17,215000	0,66	1,735780	
17,226000	0,66	1,740930	
17,237000	0,66	1,746770	
17,248000	0,66	1,750180	
17,259000	0,66	1,751980	
17,270000	0,66	1,755850	
17,281000	0,66	1,762100	
17,292000	0,66	1,767040	
17,303000	0,66	1,774060	
17,314000	0,66	1,782710	
17,325000	0,66	1,790630	
17,336000	0,66	1,794990	
17,347000	0,66	1,798280	
17,358000	0,66	1,805110	
17,369000	0,66	1,814610	
17,380000	0,66	1,821620	
17,391000	0,66	1,827540	
17,402000	0,66	1,834990	
17,413000	0,66	1,843740	
17,424000	0,66	1,854160	
17,435000	0,66	1,863170	
17,446000	0,66	1,871070	
17,457000	0,66	1,880420	
17,468000	0,66	1,887350	
17,479000	0,66	1,895440	
17,490000	0,66	1,903460	
17,501000	0,66	1,913800	
17,512000	0,66	1,922390	
17,523000	0,66	1,932130	
17,534000	0,66	1,943910	
17,545000	0,66	1,956040	
17,556000	0,66	1,967560	
17,567000	0,66	1,975800	
17,578000	0,66	1,984380	
17,589000	0,66	1,997120	
17,600000	0,66	2,008440	
17,611000	0,66	2,021400	
17,622000	0,66	2,032810	
17,633000	0,66	2,046040	
17,644000	0,66	2,060040	
17,655000	0,66	2,071910	
17,666000	0,66	2,083910	
17,677000	0,66	2,097700	
17,688000	0,66	2,109420	
17,699000	0,66	2,120230	
17,710000	0,66	2,132940	
17,721000	0,66	2,147920	
17,732000	0,66	2,163630	
17,743000	0,66	2,180810	
17,754000	0,66	2,202660	
17,765000	0,66	2,223990	
17,776000	0,66	2,242380	
17,787000	0,66	2,260530	
17,798000	0,66	2,277230	
17,809000	0,66	2,291010	
17,820000	0,66	2,302340	
17,831000	0,66	2,309710	
17,842000	0,66	2,310550	
17,853000	0,66	2,308730	
17,864000	0,66	2,308390	
17,875000	0,66	2,304780	
17,886000	0,66	2,300120	
17,897000	0,66	2,297980	
17,908000	0,66	2,295130	
17,919000	0,66	2,293180	
17,930000	0,66	2,291000	
17,941000	0,66	2,292660	
17,952000	0,66	2,295720	
17,963000	0,66	2,301650	
17,974000	0,66	2,305600	
17,985000	0,66	2,312330	
17,996000	0,66	2,319010	
18,007000	0,66	2,322980	
18,018000	0,66	2,330160	
18,029000	0,66	2,337450	
18,040000	0,66	2,342230	
18,051000	0,66	2,346790	
18,062000	0,66	2,350860	
18,073000	0,66	2,355350	
18,084000	0,66	2,360370	
18,095000	0,66	2,363440	
18,106000	0,66	2,367010	
18,117000	0,66	2,367130	
18,128000	0,66	2,368220	
18,139000	0,66	2,373890	
18,150000	0,66	2,384140	
18,161000	0,66	2,391980	
18,172000	0,66	2,400950	
18,183000	0,66	2,408840	
18,194000	0,66	2,418750	
18,205000	0,66	2,429650	
18,216000	0,66	2,437980	
18,227000	0,66	2,445580	
18,238000	0,66	2,449470	
18,249000	0,66	2,455210	
18,260000	0,66	2,460250	
18,271000	0,66	2,465960	
18,282000	0,66	2,470880	
18,293000	0,66	2,472240	
18,304000	0,66	2,472650	
18,315000	0,66	2,470170	
18,326000	0,66	2,464900	
18,337000	0,66	2,460460	
18,348000	0,66	2,455950	
18,359000	0,66	2,450920	
18,370000	0,66	2,446670	
18,381000	0,66	2,444230	
18,392000	0,66	2,435560	
18,403000	0,66	2,428030	
18,414000	0,66	2,423930	
18,425000	0,66	2,419940	
18,436000	0,66	2,418090	
18,447000	0,66	2,414460	
18,458000	0,66	2,411490	
18,469000	0,66	2,407830	
18,480000	0,66	2,399980	
18,491000	0,66	2,391590	
18,502000	0,66	2,384970	
18,513000	0,66	2,379550	
18,524000	0,66	2,371530	
18,535000	0,66	2,361470	
18,546000	0,66	2,351780	
18,557000	0,66	2,341440	
18,568000	0,66	2,331450	
18,579000	0,66	2,320680	
18,590000	0,66	2,310660	
18,601000	0,66	2,301400	
18,612000	0,66	2,292230	
18,623000	0,66	2,282450	
18,634000	0,66	2,269970	
18,645000	0,66	2,258980	
18,656000	0,66	2,247380	
18,667000	0,66	2,234550	
18,678000	0,66	2,224750	
18,689000	0,66	2,214740	
18,700000	0,66	2,204650	
18,711000	0,66	2,193060	
18,722000	0,66	2,181100	
18,733000	0,66	2,171530	
18,744000	0,66	2,159150	
18,755000	0,66	2,145010	
18,766000	0,66	2,132570	
18,777000	0,66	2,121670	
18,788000	0,66	2,109540	
18,799000	0,66	2,099240	
18,810000	0,66	2,090510	
18,821000	0,66	2,076090	
18,832000	0,66	2,062190	
18,843000	0,66	2,051140	
18,854000	0,66	2,038730	
18,865000	0,66	2,027050	
18,876000	0,66	2,015650	
18,887000	0,66	2,005950	
18,898000	0,66	1,998690	
18,909000	0,66	1,988980	
18,920000	0,66	1,977030	
18,931000	0,66	1,965430	
18,942000	0,66	1,953870	
18,953000	0,66	1,942580	
18,964000	0,66	1,930400	
18,975000	0,66	1,920100	
18,986000	0,66	1,911800	
18,997000	0,66	1,899820	
19,008000	0,66	1,888810	
19,019000	0,66	1,879570	
19,030000	0,66	1,869050	
19,041000	0,66	1,856860	
19,052000	0,66	1,846260	
19,063000	0,66	1,835440	
19,074000	0,66	1,824250	
19,085000	0,66	1,814260	
19,096000	0,66	1,804390	
19,107000	0,66	1,793510	
19,118000	0,66	1,784090	
19,129000	0,66	1,772740	
19,140000	0,66	1,761650	
19,151000	0,66	1,752970	
19,162000	0,66	1,744220	
19,173000	0,66	1,737200	
19,184000	0,66	1,728850	
19,195000	0,66	1,719490	
19,206000	0,66	1,711380	
19,217000	0,66	1,704020	
19,228000	0,66	1,695250	
19,239000	0,66	1,683590	
19,250000	0,66	1,674460	
19,261000	0,66	1,665520	
19,272000	0,66	1,656530	
19,283000	0,66	1,646880	
19,294000	0,66	1,635260	
19,305000	0,66	1,624510	
19,316000	0,66	1,616250	
19,327000	0,66	1,606800	
19,338000	0,66	1,598700	
19,349000	0,66	1,592800	
19,360000	0,66	1,586800	
19,371000	0,66	1,578320	
19,382000	0,66	1,572750	
19,393000	0,66	1,566190	
19,404000	0,66	1,557350	
19,415000	0,66	1,547830	
19,426000	0,66	1,539160	
19,437000	0,66	1,530160	
19,448000	0,66	1,522420	
19,459000	0,66	1,514110	
19,470000	0,66	1,506640	
19,481000	0,66	1,499170	
19,492000	0,66	1,489450	
19,503000	0,66	1,480620	
19,514000	0,66	1,474030	
19,525000	0,66	1,467460	
19,536000	0,66	1,460360	
19,547000	0,66	1,453420	
19,558000	0,66	1,444200	
19,569000	0,66	1,435990	
19,580000	0,66	1,428220	
19,591000	0,66	1,421670	
19,602000	0,66	1,414310	
19,613000	0,66	1,407310	
19,624000	0,66	1,402590	
19,635000	0,66	1,394420	
19,646000	0,66	1,388300	
19,657000	0,66	1,382270	
19,668000	0,66	1,378690	
19,679000	0,66	1,375240	
19,690000	0,66	1,369710	
19,701000	0,66	1,365640	
19,712000	0,66	1,361430	
19,723000	0,66	1,353580	
19,734000	0,66	1,348620	
19,745000	0,66	1,341740	
19,756000	0,66	1,335210	
19,767000	0,66	1,331730	
19,778000	0,66	1,328660	
19,789000	0,66	1,323590	
19,800000	0,66	1,317320	
19,811000	0,66	1,312180	
19,822000	0,66	1,308990	
19,833000	0,66	1,304310	
19,844000	0,66	1,300280	
19,855000	0,66	1,293630	
19,866000	0,66	1,288100	
19,877000	0,66	1,286730	
19,888000	0,66	1,284260	
19,899000	0,66	1,279380	
19,910000	0,66	1,275030	
19,921000	0,66	1,270060	
19,932000	0,66	1,263190	
19,943000	0,66	1,259850	
19,954000	0,66	1,258800	
19,965000	0,66	1,256960	
19,976000	0,66	1,254660	
19,987000	0,66	1,251630	
19,998000	0,66	1,248900	
20,009000	0,66	1,244340	
20,020000	0,66	1,241120	
20,031000	0,66	1,240170	
20,042000	0,66	1,241030	
20,053000	0,66	1,238780	
20,064000	0,66	1,238830	
20,075000	0,66	1,239350	
20,086000	0,66	1,239550	
20,097000	0,66	1,241430	
20,108000	0,66	1,248680	
20,119000	0,66	1,253280	
20,130000	0,66	1,256340	
20,141000	0,66	1,259430	
20,152000	0,66	1,264330	
20,163000	0,66	1,272770	
20,174000	0,66	1,277010	
20,185000	0,66	1,277650	
20,196000	0,66	1,275540	
20,207000	0,66	1,271750	
20,218000	0,66	1,268820	
20,229000	0,66	1,261740	
20,240000	0,66	1,253330	
20,251000	0,66	1,242050	
20,262000	0,66	1,233700	
20,273000	0,66	1,223520	
20,284000	0,66	1,212540	
20,295000	0,66	1,199920	
20,306000	0,66	1,191690	
20,317000	0,66	1,183000	
20,328000	0,66	1,178570	
20,339000	0,66	1,174850	
20,350000	0,66	1,171610	
20,361000	0,66	1,165960	
20,372000	0,66	1,164510	
20,383000	0,66	1,162960	
20,394000	0,66	1,158850	
20,405000	0,66	1,155170	
20,416000	0,66	1,152000	
20,427000	0,66	1,150610	
20,438000	0,66	1,148010	
20,449000	0,66	1,148340	
20,460000	0,66	1,149970	
20,471000	0,66	1,152840	
20,482000	0,66	1,160710	
20,493000	0,66	1,168490	
20,504000	0,66	1,176120	
20,515000	0,66	1,185980	
20,526000	0,66	1,193090	
20,537000	0,66	1,198690	
20,548000	0,66	1,202090	
20,559000	0,66	1,203210	
20,570000	0,66	1,204560	
20,581000	0,66	1,202090	
20,592000	0,66	1,194810	
20,603000	0,66	1,186950	
20,614000	0,66	1,179920	
20,625000	0,66	1,171800	
20,636000	0,66	1,162410	
20,647000	0,66	1,152330	
20,658000	0,66	1,142170	
20,669000	0,66	1,134340	
20,680000	0,66	1,125650	
20,691000	0,66	1,118790	
20,702000	0,66	1,114600	
20,713000	0,66	1,111880	
20,724000	0,66	1,110380	
20,735000	0,66	1,106800	
20,746000	0,66	1,104010	
20,757000	0,66	1,099810	
20,768000	0,66	1,096640	
20,779000	0,66	1,096810	
20,790000	0,66	1,096210	
20,801000	0,66	1,097760	
20,812000	0,66	1,107060	
20,823000	0,66	1,115310	
20,834000	0,66	1,108600	
20,845000	0,66	1,104050	
20,856000	0,66	1,097540	
20,867000	0,66	1,092300	
20,878000	0,66	1,086870	
20,889000	0,66	1,085930	
20,900000	0,66	1,086830	
20,911000	0,66	1,085690	
20,922000	0,66	1,086970	
20,933000	0,66	1,089270	
20,944000	0,66	1,094250	
20,955000	0,66	1,092220	
20,966000	0,66	1,090760	
20,977000	0,66	1,088760	
20,988000	0,66	1,088310	
20,999000	0,66	1,089310	
21,010000	0,66	1,090600	
21,021000	0,66	1,093570	
21,032000	0,66	1,092950	
21,043000	0,66	1,090560	
21,054000	0,66	1,090190	
21,065000	0,66	1,091180	
21,076000	0,66	1,089320	
21,087000	0,66	1,087270	
21,098000	0,66	1,086540	
21,109000	0,66	1,085710	
21,120000	0,66	1,088780	
21,131000	0,66	1,088710	
21,142000	0,66	1,089020	
21,153000	0,66	1,091790	
21,164000	0,66	1,092130	
21,175000	0,66	1,090680	
21,186000	0,66	1,089110	
21,197000	0,66	1,090670	
21,208000	0,66	1,090820	
21,219000	0,66	1,090360	
21,230000	0,66	1,090110	
21,241000	0,66	1,090350	
21,252000	0,66	1,094430	
21,263000	0,66	1,098480	
21,274000	0,66	1,096520	
21,285000	0,66	1,094190	
21,296000	0,66	1,095560	
21,307000	0,66	1,098460	
21,318000	0,66	1,102200	
21,329000	0,66	1,103500	
21,340000	0,66	1,102110	
21,351000	0,66	1,101100	
21,362000	0,66	1,102200	
21,373000	0,66	1,100280	
21,384000	0,66	1,099040	
21,395000	0,66	1,103430	
21,406000	0,66	1,107830	
21,417000	0,66	1,111490	
21,428000	0,66	1,113850	
21,439000	0,66	1,114850	
21,450000	0,66	1,113790	
21,461000	0,66	1,114620	
21,472000	0,66	1,114940	
21,483000	0,66	1,115450	
21,494000	0,66	1,116060	
21,505000	0,66	1,118660	
21,516000	0,66	1,121690	
21,527000	0,66	1,123150	
21,538000	0,66	1,124560	
21,549000	0,66	1,125340	
21,560000	0,66	1,127810	
21,571000	0,66	1,130120	
21,582000	0,66	1,135180	
21,593000	0,66	1,136490	
21,604000	0,66	1,134780	
21,615000	0,66	1,134710	
21,626000	0,66	1,139630	
21,637000	0,66	1,143510	
21,648000	0,66	1,143300	
21,659000	0,66	1,144650	
21,670000	0,66	1,147040	
21,681000	0,66	1,147790	
21,692000	0,66	1,149310	
21,703000	0,66	1,149590	
21,714000	0,66	1,155100	
21,725000	0,66	1,158180	
21,736000	0,66	1,161170	
21,747000	0,66	1,164250	
21,758000	0,66	1,171310	
21,769000	0,66	1,174270	
21,780000	0,66	1,178280	
21,791000	0,66	1,182430	
21,802000	0,66	1,185220	
21,813000	0,66	1,186040	
21,824000	0,66	1,185360	
21,835000	0,66	1,187490	
21,846000	0,66	1,191040	
21,857000	0,66	1,191740	
21,868000	0,66	1,192310	
21,879000	0,66	1,190690	
21,890000	0,66	1,187450	
21,901000	0,66	1,190490	
21,912000	0,66	1,194100	
21,923000	0,66	1,195680	
21,934000	0,66	1,196780	
21,945000	0,66	1,199010	
21,956000	0,66	1,201450	
21,967000	0,66	1,203050	
21,978000	0,66	1,206660	
21,989000	0,66	1,211800	
22,000000	0,66	1,215140	
22,011000	0,66	1,217710	
22,022000	0,66	1,218330	
22,033000	0,66	1,216390	
22,044000	0,66	1,218070	
22,055000	0,66	1,220910	
22,066000	0,66	1,221500	
22,077000	0,66	1,223190	
22,088000	0,66	1,227000	
22,099000	0,66	1,228360	
22,110000	0,66	1,229010	
22,121000	0,66	1,232610	
22,132000	0,66	1,233410	
22,143000	0,66	1,234100	
22,154000	0,66	1,234100	
22,165000	0,66	1,233850	
22,176000	0,66	1,234140	
22,187000	0,66	1,235160	
22,198000	0,66	1,235680	
22,209000	0,66	1,235630	
22,220000	0,66	1,235760	
22,231000	0,66	1,236240	
22,242000	0,66	1,237430	
22,253000	0,66	1,239200	
22,264000	0,66	1,242460	
22,275000	0,66	1,241490	
22,286000	0,66	1,241190	
22,297000	0,66	1,241800	
22,308000	0,66	1,241690	
22,319000	0,66	1,243620	
22,330000	0,66	1,245960	
22,341000	0,66	1,246140	
22,352000	0,66	1,243660	
22,363000	0,66	1,240450	
22,374000	0,66	1,238670	
22,385000	0,66	1,241930	
22,396000	0,66	1,243010	
22,407000	0,66	1,242330	
22,418000	0,66	1,243280	
22,429000	0,66	1,244280	
22,440000	0,66	1,243950	
22,451000	0,66	1,242320	
22,462000	0,66	1,240540	
22,473000	0,66	1,239110	
22,484000	0,66	1,239950	
22,495000	0,66	1,239910	
22,506000	0,66	1,241100	
22,517000	0,66	1,241510	
22,528000	0,66	1,241600	
22,539000	0,66	1,242970	
22,550000	0,66	1,243380	
22,561000	0,66	1,244980	
22,572000	0,66	1,245960	
22,583000	0,66	1,243170	
22,594000	0,66	1,243050	
22,605000	0,66	1,243450	
22,616000	0,66	1,244070	
22,627000	0,66	1,245550	
22,638000	0,66	1,252180	
22,649000	0,66	1,259400	
22,660000	0,66	1,262000	
22,671000	0,66	1,262670	
22,682000	0,66	1,261990	
22,693000	0,66	1,261640	
22,704000	0,66	1,264720	
22,715000	0,66	1,268280	
22,726000	0,66	1,268360	
22,737000	0,66	1,269250	
22,748000	0,66	1,270750	
22,759000	0,66	1,273410	
22,770000	0,66	1,276360	
22,781000	0,66	1,279670	
22,792000	0,66	1,284090	
22,803000	0,66	1,286270	
22,814000	0,66	1,286300	
22,825000	0,66	1,287210	
22,836000	0,66	1,290370	
22,847000	0,66	1,292760	
22,858000	0,66	1,295930	
22,869000	0,66	1,297130	
22,880000	0,66	1,298920	
22,891000	0,66	1,301360	
22,902000	0,66	1,303690	
22,913000	0,66	1,303690	
22,924000	0,66	1,302860	
22,935000	0,66	1,305140	
22,946000	0,66	1,309260	
22,957000	0,66	1,308380	
22,968000	0,66	1,308490	
22,979000	0,66	1,309230	
22,990000	0,66	1,311490	
23,001000	0,66	1,312080	
23,012000	0,66	1,309520	
23,023000	0,66	1,309210	
23,034000	0,66	1,307750	
23,045000	0,66	1,313580	
23,056000	0,66	1,313550	
23,067000	0,66	1,310990	
23,078000	0,66	1,310030	
23,089000	0,66	1,309260	
23,100000	0,66	1,309970	
23,111000	0,66	1,309010	
23,122000	0,66	1,306230	
23,133000	0,66	1,301630	
23,144000	0,66	1,299900	
23,155000	0,66	1,297880	
23,166000	0,66	1,294440	
23,177000	0,66	1,290600	
23,188000	0,66	1,285750	
23,199000	0,66	1,282810	
23,210000	0,66	1,281520	
23,221000	0,66	1,278420	
23,232000	0,66	1,275330	
23,243000	0,66	1,272780	
23,254000	0,66	1,271000	
23,265000	0,66	1,268700	
23,276000	0,66	1,264050	
23,287000	0,66	1,259580	
23,298000	0,66	1,256110	
23,309000	0,66	1,255960	
23,320000	0,66	1,253630	
23,331000	0,66	1,248100	
23,342000	0,66	1,245830	
23,353000	0,66	1,245480	
23,364000	0,66	1,244510	
23,375000	0,66	1,243900	
23,386000	0,66	1,243760	
23,397000	0,66	1,244210	
23,408000	0,66	1,243910	
23,419000	0,66	1,242780	
23,430000	0,66	1,242810	
23,441000	0,66	1,239980	
23,452000	0,66	1,234740	
23,463000	0,66	1,233160	
23,474000	0,66	1,232230	
23,485000	0,66	1,229910	
23,496000	0,66	1,225300	
23,507000	0,66	1,218890	
23,518000	0,66	1,214650	
23,529000	0,66	1,210730	
23,540000	0,66	1,207050	
23,551000	0,66	1,206340	
23,562000	0,66	1,202240	
23,573000	0,66	1,196940	
23,584000	0,66	1,191400	
23,595000	0,66	1,184800	
23,606000	0,66	1,181740	
23,617000	0,66	1,178940	
23,628000	0,66	1,177320	
23,639000	0,66	1,173320	
23,650000	0,66	1,170170	
23,661000	0,66	1,166440	
23,672000	0,66	1,165340	
23,683000	0,66	1,164820	
23,694000	0,66	1,162710	
23,705000	0,66	1,158540	
23,716000	0,66	1,156330	
23,727000	0,66	1,153260	
23,738000	0,66	1,147870	
23,749000	0,66	1,141890	
23,760000	0,66	1,140110	
23,771000	0,66	1,140910	
23,782000	0,66	1,140080	
23,793000	0,66	1,141150	
23,804000	0,66	1,141440	
23,815000	0,66	1,140110	
23,826000	0,66	1,138490	
23,837000	0,66	1,136420	
23,848000	0,66	1,137550	
23,859000	0,66	1,136320	
23,870000	0,66	1,137160	
23,881000	0,66	1,138110	
23,892000	0,66	1,135750	
23,903000	0,66	1,138250	
23,914000	0,66	1,140340	
23,925000	0,66	1,141210	
23,936000	0,66	1,141370	
23,947000	0,66	1,140390	
23,958000	0,66	1,139620	
23,969000	0,66	1,142670	
23,980000	0,66	1,145470	
23,991000	0,66	1,146900	
24,002000	0,66	1,147430	
24,013000	0,66	1,148890	
24,024000	0,66	1,152280	
24,035000	0,66	1,153340	
24,046000	0,66	1,153960	
24,057000	0,66	1,154460	
24,068000	0,66	1,155960	
24,079000	0,66	1,159480	
24,090000	0,66	1,162880	
24,101000	0,66	1,166470	
24,112000	0,66	1,169560	
24,123000	0,66	1,175480	
24,134000	0,66	1,182530	
24,145000	0,66	1,188860	
24,156000	0,66	1,200490	
24,167000	0,66	1,211110	
24,178000	0,66	1,220110	
24,189000	0,66	1,232860	
24,200000	0,66	1,244770	
24,211000	0,66	1,260140	
24,222000	0,66	1,276000	
24,233000	0,66	1,295190	
24,244000	0,66	1,311810	
24,255000	0,66	1,329840	
24,266000	0,66	1,350680	
24,277000	0,66	1,373760	
24,288000	0,66	1,392560	
24,299000	0,66	1,410820	
24,310000	0,66	1,429970	
24,321000	0,66	1,440000	
24,332000	0,66	1,447530	
24,343000	0,66	1,448550	
24,354000	0,66	1,445820	
24,365000	0,66	1,440320	
24,376000	0,66	1,437370	
24,387000	0,66	1,436060	
24,398000	0,66	1,429560	
24,409000	0,66	1,419970	
24,420000	0,66	1,410140	
24,431000	0,66	1,401260	
24,442000	0,66	1,389350	
24,453000	0,66	1,381480	
24,464000	0,66	1,375560	
24,475000	0,66	1,373190	
24,486000	0,66	1,365200	
24,497000	0,66	1,361310	
24,508000	0,66	1,359300	
24,519000	0,66	1,355110	
24,530000	0,66	1,351070	
24,541000	0,66	1,347090	
24,552000	0,66	1,341620	
24,563000	0,66	1,340490	
24,574000	0,66	1,337130	
24,585000	0,66	1,331050	
24,596000	0,66	1,328050	
24,607000	0,66	1,323600	
24,618000	0,66	1,317950	
24,629000	0,66	1,311430	
24,640000	0,66	1,307660	
24,651000	0,66	1,303820	
24,662000	0,66	1,296460	
24,673000	0,66	1,291020	
24,684000	0,66	1,286980	
24,695000	0,66	1,280950	
24,706000	0,66	1,275260	
24,717000	0,66	1,269970	
24,728000	0,66	1,263520	
24,739000	0,66	1,258040	
24,750000	0,66	1,253590	
24,761000	0,66	1,249330	
24,772000	0,66	1,245290	
24,783000	0,66	1,241590	
24,794000	0,66	1,239230	
24,805000	0,66	1,236200	
24,816000	0,66	1,232430	
24,827000	0,66	1,230480	
24,838000	0,66	1,229980	
24,849000	0,66	1,230670	
24,860000	0,66	1,229500	
24,871000	0,66	1,226920	
24,882000	0,66	1,222850	
24,893000	0,66	1,219300	
24,904000	0,66	1,216960	
24,915000	0,66	1,216400	
24,926000	0,66	1,210460	
24,937000	0,66	1,206540	
24,948000	0,66	1,201710	
24,959000	0,66	1,201160	
24,970000	0,66	1,198190	
24,981000	0,66	1,196530	
24,992000	0,66	1,195650	
25,003000	0,66	1,193150	
25,014000	0,66	1,193570	
25,025000	0,66	1,191760	
25,036000	0,66	1,191060	
25,047000	0,66	1,192160	
25,058000	0,66	1,192270	
25,069000	0,66	1,190700	
25,080000	0,66	1,187030	
25,091000	0,66	1,186560	
25,102000	0,66	1,185120	
25,113000	0,66	1,184760	
25,124000	0,66	1,186640	
25,135000	0,66	1,185010	
25,146000	0,66	1,186990	
25,157000	0,66	1,184060	
25,168000	0,66	1,185070	
25,179000	0,66	1,185210	
25,190000	0,66	1,189050	
25,201000	0,66	1,191050	
25,212000	0,66	1,190730	
25,223000	0,66	1,188470	
25,234000	0,66	1,186260	
25,245000	0,66	1,186650	
25,256000	0,66	1,184600	
25,267000	0,66	1,185880	
25,278000	0,66	1,185670	
25,289000	0,66	1,185310	
25,300000	0,66	1,182410	
25,311000	0,66	1,182120	
25,322000	0,66	1,180910	
25,333000	0,66	1,178480	
25,344000	0,66	1,179850	
25,355000	0,66	1,181650	
25,366000	0,66	1,182870	
25,377000	0,66	1,183770	
25,388000	0,66	1,182760	
25,399000	0,66	1,179940	
25,410000	0,66	1,179750	
25,421000	0,66	1,181540	
25,432000	0,66	1,184830	
25,443000	0,66	1,185700	
25,454000	0,66	1,184790	
25,465000	0,66	1,185750	
25,476000	0,66	1,184090	
25,487000	0,66	1,181940	
25,498000	0,66	1,180810	
25,509000	0,66	1,179510	
25,520000	0,66	1,180360	
25,531000	0,66	1,178670	
25,542000	0,66	1,176680	
25,553000	0,66	1,178020	
25,564000	0,66	1,178310	
25,575000	0,66	1,174900	
25,586000	0,66	1,172280	
25,597000	0,66	1,173880	
25,608000	0,66	1,171630	
25,619000	0,66	1,171640	
25,630000	0,66	1,170330	
25,641000	0,66	1,167300	
25,652000	0,66	1,166270	
25,663000	0,66	1,164890	
25,674000	0,66	1,162090	
25,685000	0,66	1,161570	
25,696000	0,66	1,163960	
25,707000	0,66	1,162030	
25,718000	0,66	1,162210	
25,729000	0,66	1,163420	
25,740000	0,66	1,161940	
25,751000	0,66	1,159730	
25,762000	0,66	1,156150	
25,773000	0,66	1,154880	
25,784000	0,66	1,153190	
25,795000	0,66	1,153660	
25,806000	0,66	1,153580	
25,817000	0,66	1,151410	
25,828000	0,66	1,148420	
25,839000	0,66	1,146690	
25,850000	0,66	1,147530	
25,861000	0,66	1,148120	
25,872000	0,66	1,145980	
25,883000	0,66	1,145460	
25,894000	0,66	1,146270	
25,905000	0,66	1,146320	
25,916000	0,66	1,147290	
25,927000	0,66	1,149590	
25,938000	0,66	1,150780	
25,949000	0,66	1,150850	
25,960000	0,66	1,152500	
25,971000	0,66	1,154350	
25,982000	0,66	1,158700	
25,993000	0,66	1,160570	
26,004000	0,66	1,165130	
26,015000	0,66	1,171610	
26,026000	0,66	1,176390	
26,037000	0,66	1,179750	
26,048000	0,66	1,185240	
26,059000	0,66	1,190400	
26,070000	0,66	1,194940	
26,081000	0,66	1,197150	
26,092000	0,66	1,194720	
26,103000	0,66	1,191260	
26,114000	0,66	1,191620	
26,125000	0,66	1,188990	
26,136000	0,66	1,185150	
26,147000	0,66	1,182560	
26,158000	0,66	1,181440	
26,169000	0,66	1,181690	
26,180000	0,66	1,181140	
26,191000	0,66	1,180560	
26,202000	0,66	1,178060	
26,213000	0,66	1,174970	
26,224000	0,66	1,172470	
26,235000	0,66	1,171960	
26,246000	0,66	1,171950	
26,257000	0,66	1,171970	
26,268000	0,66	1,174490	
26,279000	0,66	1,174700	
26,290000	0,66	1,174690	
26,301000	0,66	1,174680	
26,312000	0,66	1,179950	
26,323000	0,66	1,187060	
26,334000	0,66	1,193520	
26,345000	0,66	1,201330	
26,356000	0,66	1,209750	
26,367000	0,66	1,218090	
26,378000	0,66	1,224050	
26,389000	0,66	1,230830	
26,400000	0,66	1,240590	
26,411000	0,66	1,246150	
26,422000	0,66	1,248340	
26,433000	0,66	1,247090	
26,444000	0,66	1,245110	
26,455000	0,66	1,239800	
26,466000	0,66	1,235220	
26,477000	0,66	1,225710	
26,488000	0,66	1,217420	
26,499000	0,66	1,209410	
26,510000	0,66	1,203780	
26,521000	0,66	1,194980	
26,532000	0,66	1,187580	
26,543000	0,66	1,183460	
26,554000	0,66	1,179430	
26,565000	0,66	1,176100	
26,576000	0,66	1,174430	
26,587000	0,66	1,169310	
26,598000	0,66	1,166550	
26,609000	0,66	1,165310	
26,620000	0,66	1,167370	
26,631000	0,66	1,168180	
26,642000	0,66	1,168750	
26,653000	0,66	1,167230	
26,664000	0,66	1,163910	
26,675000	0,66	1,159800	
26,686000	0,66	1,160660	
26,697000	0,66	1,163210	
26,708000	0,66	1,164890	
26,719000	0,66	1,164860	
26,730000	0,66	1,163400	
26,741000	0,66	1,162010	
26,752000	0,66	1,163310	
26,763000	0,66	1,161800	
26,774000	0,66	1,160530	
26,785000	0,66	1,161280	
26,796000	0,66	1,160570	
26,807000	0,66	1,158630	
26,818000	0,66	1,157090	
26,829000	0,66	1,159570	
26,840000	0,66	1,161860	
26,851000	0,66	1,161940	
26,862000	0,66	1,162510	
26,873000	0,66	1,163670	
26,884000	0,66	1,163590	
26,895000	0,66	1,161630	
26,906000	0,66	1,160440	
26,917000	0,66	1,160880	
26,928000	0,66	1,162920	
26,939000	0,66	1,164190	
26,950000	0,66	1,164910	
26,961000	0,66	1,166060	
26,972000	0,66	1,166260	
26,983000	0,66	1,164810	
26,994000	0,66	1,166670	
27,005000	0,66	1,168150	
27,016000	0,66	1,167410	
27,027000	0,66	1,169260	
27,038000	0,66	1,168220	
27,049000	0,66	1,167730	
27,060000	0,66	1,167360	
27,071000	0,66	1,167910	
27,082000	0,66	1,168010	
27,093000	0,66	1,168590	
27,104000	0,66	1,170820	
27,115000	0,66	1,169910	
27,126000	0,66	1,166570	
27,137000	0,66	1,168550	
27,148000	0,66	1,168270	
27,159000	0,66	1,170270	
27,170000	0,66	1,170390	
27,181000	0,66	1,171150	
27,192000	0,66	1,172250	
27,203000	0,66	1,169140	
27,214000	0,66	1,167110	
27,225000	0,66	1,166980	
27,236000	0,66	1,167530	
27,247000	0,66	1,166100	
27,258000	0,66	1,167040	
27,269000	0,66	1,167160	
27,280000	0,66	1,169170	
27,291000	0,66	1,168940	
27,302000	0,66	1,170650	
27,313000	0,66	1,169690	
27,324000	0,66	1,171290	
27,335000	0,66	1,167670	
27,346000	0,66	1,165410	
27,357000	0,66	1,169060	
27,368000	0,66	1,169190	
27,379000	0,66	1,171890	
27,390000	0,66	1,173430	
27,401000	0,66	1,173080	
27,412000	0,66	1,172260	
27,423000	0,66	1,174110	
27,434000	0,66	1,174580	
27,445000	0,66	1,175730	
27,456000	0,66	1,175430	
27,467000	0,66	1,172210	
27,478000	0,66	1,173670	
27,489000	0,66	1,175700	
27,500000	0,66	1,173100	
27,511000	0,66	1,173290	
27,522000	0,66	1,173330	
27,533000	0,66	1,172630	
27,544000	0,66	1,173220	
27,555000	0,66	1,173290	
27,566000	0,66	1,172390	
27,577000	0,66	1,173260	
27,588000	0,66	1,176450	
27,599000	0,66	1,177610	
27,610000	0,66	1,175750	
27,621000	0,66	1,172110	
27,632000	0,66	1,170560	
27,643000	0,66	1,170170	
27,654000	0,66	1,170480	
27,665000	0,66	1,171900	
27,676000	0,66	1,172880	
27,687000	0,66	1,176560	
27,698000	0,66	1,179460	
27,709000	0,66	1,180610	
27,720000	0,66	1,180940	
27,731000	0,66	1,181400	
27,742000	0,66	1,181980	
27,753000	0,66	1,179860	
27,764000	0,66	1,183720	
27,775000	0,66	1,185650	
27,786000	0,66	1,184480	
27,797000	0,66	1,182620	
27,808000	0,66	1,183040	
27,819000	0,66	1,183910	
27,830000	0,66	1,184710	
27,841000	0,66	1,181040	
27,852000	0,66	1,178280	
27,863000	0,66	1,179030	
27,874000	0,66	1,180910	
27,885000	0,66	1,184140	
27,896000	0,66	1,184690	
27,907000	0,66	1,184150	
27,918000	0,66	1,186230	
27,929000	0,66	1,190660	
27,940000	0,66	1,191450	
27,951000	0,66	1,194650	
27,962000	0,66	1,197210	
27,973000	0,66	1,199420	
27,984000	0,66	1,201220	
27,995000	0,66	1,201050	
28,006000	0,66	1,198110	
28,017000	0,66	1,199590	
28,028000	0,66	1,204230	
28,039000	0,66	1,206630	
28,050000	0,66	1,209890	
28,061000	0,66	1,211610	
28,072000	0,66	1,210890	
28,083000	0,66	1,213400	
28,094000	0,66	1,218270	
28,105000	0,66	1,224050	
28,116000	0,66	1,228650	
28,127000	0,66	1,236700	
28,138000	0,66	1,244020	
28,149000	0,66	1,248690	
28,160000	0,66	1,254560	
28,171000	0,66	1,263920	
28,182000	0,66	1,272670	
28,193000	0,66	1,284800	
28,204000	0,66	1,299730	
28,215000	0,66	1,314330	
28,226000	0,66	1,327800	
28,237000	0,66	1,340910	
28,248000	0,66	1,357300	
28,259000	0,66	1,375020	
28,270000	0,66	1,394610	
28,281000	0,66	1,418810	
28,292000	0,66	1,442070	
28,303000	0,66	1,464870	
28,314000	0,66	1,491540	
28,325000	0,66	1,518150	
28,336000	0,66	1,549920	
28,347000	0,66	1,584200	
28,358000	0,66	1,616160	
28,369000	0,66	1,648610	
28,380000	0,66	1,681770	
28,391000	0,66	1,719610	
28,402000	0,66	1,755770	
28,413000	0,66	1,790260	
28,424000	0,66	1,827080	
28,435000	0,66	1,863640	
28,446000	0,66	1,900260	
28,457000	0,66	1,939540	
28,468000	0,66	1,977260	
28,479000	0,66	2,015360	
28,490000	0,66	2,047250	
28,501000	0,66	2,078980	
28,512000	0,66	2,111220	
28,523000	0,66	2,139640	
28,534000	0,66	2,166450	
28,545000	0,66	2,196350	
28,556000	0,66	2,222770	
28,567000	0,66	2,245390	
28,578000	0,66	2,265750	
28,589000	0,66	2,282330	
28,600000	0,66	2,298390	
28,611000	0,66	2,308850	
28,622000	0,66	2,316700	
28,633000	0,66	2,321960	
28,644000	0,66	2,324160	
28,655000	0,66	2,325300	
28,666000	0,66	2,322350	
28,677000	0,66	2,315790	
28,688000	0,66	2,308050	
28,699000	0,66	2,300460	
28,710000	0,66	2,291940	
28,721000	0,66	2,278860	
28,732000	0,66	2,267230	
28,743000	0,66	2,251940	
28,754000	0,66	2,235640	
28,765000	0,66	2,215660	
28,776000	0,66	2,197620	
28,787000	0,66	2,178640	
28,798000	0,66	2,159200	
28,809000	0,66	2,136040	
28,820000	0,66	2,114650	
28,831000	0,66	2,094160	
28,842000	0,66	2,074310	
28,853000	0,66	2,055190	
28,864000	0,66	2,031950	
28,875000	0,66	2,010470	
28,886000	0,66	1,990710	
28,897000	0,66	1,968880	
28,908000	0,66	1,948420	
28,919000	0,66	1,929680	
28,930000	0,66	1,913610	
28,941000	0,66	1,899120	
28,952000	0,66	1,883340	
28,963000	0,66	1,863480	
28,974000	0,66	1,843940	
28,985000	0,66	1,828850	
28,996000	0,66	1,816550	
29,007000	0,66	1,806670	
29,018000	0,66	1,792520	
29,029000	0,66	1,777450	
29,040000	0,66	1,766510	
29,051000	0,66	1,757320	
29,062000	0,66	1,748770	
29,073000	0,66	1,738310	
29,084000	0,66	1,727460	
29,095000	0,66	1,720860	
29,106000	0,66	1,714130	
29,117000	0,66	1,706330	
29,128000	0,66	1,698060	
29,139000	0,66	1,691290	
29,150000	0,66	1,683380	
29,161000	0,66	1,675930	
29,172000	0,66	1,669870	
29,183000	0,66	1,665300	
29,194000	0,66	1,659400	
29,205000	0,66	1,652510	
29,216000	0,66	1,646840	
29,227000	0,66	1,643930	
29,238000	0,66	1,642750	
29,249000	0,66	1,638690	
29,260000	0,66	1,633360	
29,271000	0,66	1,630910	
29,282000	0,66	1,628730	
29,293000	0,66	1,625370	
29,304000	0,66	1,625410	
29,315000	0,66	1,624930	
29,326000	0,66	1,619390	
29,337000	0,66	1,617490	
29,348000	0,66	1,614550	
29,359000	0,66	1,609130	
29,370000	0,66	1,605780	
29,381000	0,66	1,603030	
29,392000	0,66	1,600930	
29,403000	0,66	1,598750	
29,414000	0,66	1,597040	
29,425000	0,66	1,595680	
29,436000	0,66	1,595920	
29,447000	0,66	1,595670	
29,458000	0,66	1,594330	
29,469000	0,66	1,592350	
29,480000	0,66	1,588960	
29,491000	0,66	1,585600	
29,502000	0,66	1,583050	
29,513000	0,66	1,581700	
29,524000	0,66	1,580560	
29,535000	0,66	1,580530	
29,546000	0,66	1,579780	
29,557000	0,66	1,576700	
29,568000	0,66	1,573600	
29,579000	0,66	1,572410	
29,590000	0,66	1,568660	
29,601000	0,66	1,564360	
29,612000	0,66	1,563100	
29,623000	0,66	1,560770	
29,634000	0,66	1,559390	
29,645000	0,66	1,558180	
29,656000	0,66	1,553890	
29,667000	0,66	1,550300	
29,678000	0,66	1,546710	
29,689000	0,66	1,542570	
29,700000	0,66	1,539750	
29,711000	0,66	1,537720	
29,722000	0,66	1,536070	
29,733000	0,66	1,535310	
29,744000	0,66	1,534780	
29,755000	0,66	1,532450	
29,766000	0,66	1,531290	
29,777000	0,66	1,530470	
29,788000	0,66	1,531080	
29,799000	0,66	1,528890	
29,810000	0,66	1,526810	
29,821000	0,66	1,525060	
29,832000	0,66	1,524430	
29,843000	0,66	1,521160	
29,854000	0,66	1,518550	
29,865000	0,66	1,517680	
29,876000	0,66	1,516870	
29,887000	0,66	1,515830	
29,898000	0,66	1,514080	
29,909000	0,66	1,511740	
29,920000	0,66	1,509920	
29,931000	0,66	1,504130	
29,942000	0,66	1,504220	
29,953000	0,66	1,501910	
29,964000	0,66	1,502280	
29,975000	0,66	1,504720	
29,986000	0,66	1,504070	
29,997000	0,66	1,503770	
30,008000	0,66	1,501940	
30,019000	0,66	1,498260	
30,030000	0,66	1,497380	
30,041000	0,66	1,498860	
30,052000	0,66	1,498690	
30,063000	0,66	1,496070	
30,074000	0,66	1,496560	
30,085000	0,66	1,495090	
30,096000	0,66	1,492830	
30,107000	0,66	1,491540	
30,118000	0,66	1,493260	
30,129000	0,66	1,493040	
30,140000	0,66	1,492130	
30,151000	0,66	1,491890	
30,162000	0,66	1,490940	
30,173000	0,66	1,490180	
30,184000	0,66	1,490960	
30,195000	0,66	1,490440	
30,206000	0,66	1,492520	
30,217000	0,66	1,490530	
30,228000	0,66	1,488230	
30,239000	0,66	1,489790	
30,250000	0,66	1,492390	
30,261000	0,66	1,493470	
30,272000	0,66	1,492270	
30,283000	0,66	1,492140	
30,294000	0,66	1,491920	
30,305000	0,66	1,491840	
30,316000	0,66	1,490730	
30,327000	0,66	1,492600	
30,338000	0,66	1,496190	
30,349000	0,66	1,497630	
30,360000	0,66	1,498700	
30,371000	0,66	1,499000	
30,382000	0,66	1,497290	
30,393000	0,66	1,493490	
30,404000	0,66	1,493590	
30,415000	0,66	1,495870	
30,426000	0,66	1,496720	
30,437000	0,66	1,496850	
30,448000	0,66	1,495930	
30,459000	0,66	1,497140	
30,470000	0,66	1,499110	
30,481000	0,66	1,501720	
30,492000	0,66	1,503420	
30,503000	0,66	1,505170	
30,514000	0,66	1,506080	
30,525000	0,66	1,513410	
30,536000	0,66	1,514920	
30,547000	0,66	1,513230	
30,558000	0,66	1,509720	
30,569000	0,66	1,508730	
30,580000	0,66	1,509560	
30,591000	0,66	1,510320	
30,602000	0,66	1,513700	
30,613000	0,66	1,514160	
30,624000	0,66	1,515150	
30,635000	0,66	1,520110	
30,646000	0,66	1,519590	
30,657000	0,66	1,519310	
30,668000	0,66	1,521360	
30,679000	0,66	1,519780	
30,690000	0,66	1,519920	
30,701000	0,66	1,518380	
30,712000	0,66	1,519930	
30,723000	0,66	1,522050	
30,734000	0,66	1,525980	
30,745000	0,66	1,523750	
30,756000	0,66	1,521110	
30,767000	0,66	1,522490	
30,778000	0,66	1,523210	
30,789000	0,66	1,521940	
30,800000	0,66	1,519680	
30,811000	0,66	1,520390	
30,822000	0,66	1,520010	
30,833000	0,66	1,520980	
30,844000	0,66	1,520240	
30,855000	0,66	1,519220	
30,866000	0,66	1,519540	
30,877000	0,66	1,519570	
30,888000	0,66	1,519430	
30,899000	0,66	1,520690	
30,910000	0,66	1,522760	
30,921000	0,66	1,525170	
30,932000	0,66	1,526770	
30,943000	0,66	1,527730	
30,954000	0,66	1,526320	
30,965000	0,66	1,525120	
30,976000	0,66	1,524440	
30,987000	0,66	1,524310	
30,998000	0,66	1,525910	
31,009000	0,66	1,529760	
31,020000	0,66	1,533350	
31,031000	0,66	1,534410	
31,042000	0,66	1,533370	
31,053000	0,66	1,532210	
31,064000	0,66	1,533010	
31,075000	0,66	1,533780	
31,086000	0,66	1,534750	
31,097000	0,66	1,535430	
31,108000	0,66	1,535680	
31,119000	0,66	1,538400	
31,130000	0,66	1,538850	
31,141000	0,66	1,539000	
31,152000	0,66	1,538420	
31,163000	0,66	1,538860	
31,174000	0,66	1,538120	
31,185000	0,66	1,537550	
31,196000	0,66	1,539110	
31,207000	0,66	1,539210	
31,218000	0,66	1,540650	
31,229000	0,66	1,540360	
31,240000	0,66	1,540920	
31,251000	0,66	1,540040	
31,262000	0,66	1,542140	
31,273000	0,66	1,542680	
31,284000	0,66	1,543020	
31,295000	0,66	1,545360	
31,306000	0,66	1,544600	
31,317000	0,66	1,544300	
31,328000	0,66	1,543810	
31,339000	0,66	1,544550	
31,350000	0,66	1,542590	
31,361000	0,66	1,542170	
31,372000	0,66	1,542810	
31,383000	0,66	1,540680	
31,394000	0,66	1,543300	
31,405000	0,66	1,542410	
31,416000	0,66	1,543370	
31,427000	0,66	1,544090	
31,438000	0,66	1,545270	
31,449000	0,66	1,541670	
31,460000	0,66	1,539740	
31,471000	0,66	1,540560	
31,482000	0,66	1,545710	
31,493000	0,66	1,545980	
31,504000	0,66	1,546580	
31,515000	0,66	1,543070	
31,526000	0,66	1,544570	
31,537000	0,66	1,543640	
31,548000	0,66	1,544040	
31,559000	0,66	1,542590	
31,570000	0,66	1,540540	
31,581000	0,66	1,538550	
31,592000	0,66	1,538950	
31,603000	0,66	1,543360	
31,614000	0,66	1,546230	
31,625000	0,66	1,547970	
31,636000	0,66	1,547910	
31,647000	0,66	1,544310	
31,658000	0,66	1,541370	
31,669000	0,66	1,542540	
31,680000	0,66	1,543800	
31,691000	0,66	1,542830	
31,702000	0,66	1,545300	
31,713000	0,66	1,545680	
31,724000	0,66	1,543610	
31,735000	0,66	1,543990	
31,746000	0,66	1,544530	
31,757000	0,66	1,545280	
31,768000	0,66	1,543850	
31,779000	0,66	1,540880	
31,790000	0,66	1,539060	
31,801000	0,66	1,539170	
31,812000	0,66	1,539360	
31,823000	0,66	1,538140	
31,834000	0,66	1,538350	
31,845000	0,66	1,539260	
31,856000	0,66	1,541190	
31,867000	0,66	1,545230	
31,878000	0,66	1,542720	
31,889000	0,66	1,542460	
31,900000	0,66	1,543870	
31,911000	0,66	1,541440	
31,922000	0,66	1,539140	
31,933000	0,66	1,540870	
31,944000	0,66	1,542870	
31,955000	0,66	1,538260	
31,966000	0,66	1,536720	
31,977000	0,66	1,540560	
31,988000	0,66	1,543640	
31,999000	0,66	1,545310	
32,010000	0,66	1,546850	
32,021000	0,66	1,544490	
32,032000	0,66	1,543640	
32,043000	0,66	1,541530	
32,054000	0,66	1,540840	
32,065000	0,66	1,537230	
32,076000	0,66	1,536270	
32,087000	0,66	1,533720	
32,098000	0,66	1,534290	
32,109000	0,66	1,536140	
32,120000	0,66	1,535190	
32,131000	0,66	1,533870	
32,142000	0,66	1,536090	
32,153000	0,66	1,536580	
32,164000	0,66	1,537320	
32,175000	0,66	1,539930	
32,186000	0,66	1,539600	
32,197000	0,66	1,535960	
32,208000	0,66	1,535310	
32,219000	0,66	1,535180	
32,230000	0,66	1,534690	
32,241000	0,66	1,540030	
32,252000	0,66	1,540610	
32,263000	0,66	1,535830	
32,274000	0,66	1,534810	
32,285000	0,66	1,537720	
32,296000	0,66	1,538710	
32,307000	0,66	1,540260	
32,318000	0,66	1,539720	
32,329000	0,66	1,540170	
32,340000	0,66	1,540290	
32,351000	0,66	1,541720	
32,362000	0,66	1,542620	
32,373000	0,66	1,541560	
32,384000	0,66	1,538360	
32,395000	0,66	1,539070	
32,406000	0,66	1,541370	
32,417000	0,66	1,541380	
32,428000	0,66	1,542720	
32,439000	0,66	1,543040	
32,450000	0,66	1,541530	
32,461000	0,66	1,540510	
32,472000	0,66	1,541960	
32,483000	0,66	1,545610	
32,494000	0,66	1,544800	
32,505000	0,66	1,541660	
32,516000	0,66	1,543250	
32,527000	0,66	1,544710	
32,538000	0,66	1,542240	
32,549000	0,66	1,541270	
32,560000	0,66	1,540920	
32,571000	0,66	1,542570	
32,582000	0,66	1,544590	
32,593000	0,66	1,545790	
32,604000	0,66	1,543340	
32,615000	0,66	1,540910	
32,626000	0,66	1,537130	
32,637000	0,66	1,537800	
32,648000	0,66	1,536800	
32,659000	0,66	1,537790	
32,670000	0,66	1,539300	
32,681000	0,66	1,539750	
32,692000	0,66	1,544510	
32,703000	0,66	1,545710	
32,714000	0,66	1,544560	
32,725000	0,66	1,546170	
32,736000	0,66	1,547570	
32,747000	0,66	1,548750	
32,758000	0,66	1,545740	
32,769000	0,66	1,542530	
32,780000	0,66	1,540820	
32,791000	0,66	1,538020	
32,802000	0,66	1,542490	
32,813000	0,66	1,545170	
32,824000	0,66	1,542830	
32,835000	0,66	1,543620	
32,846000	0,66	1,544750	
32,857000	0,66	1,543590	
32,868000	0,66	1,545440	
32,879000	0,66	1,544660	
32,890000	0,66	1,543770	
32,901000	0,66	1,544990	
32,912000	0,66	1,545730	
32,923000	0,66	1,543310	
32,934000	0,66	1,545460	
32,945000	0,66	1,547720	
32,956000	0,66	1,545740	
32,967000	0,66	1,544120	
32,978000	0,66	1,546360	
32,989000	0,66	1,546610	
33,000000	0,66	1,546110	
33,011000	0,66	1,548310	
33,022000	0,66	1,550010	
33,033000	0,66	1,551410	
33,044000	0,66	1,552230	
33,055000	0,66	1,550440	
33,066000	0,66	1,548820	
33,077000	0,66	1,549010	
33,088000	0,66	1,548800	
33,099000	0,66	1,551650	
33,110000	0,66	1,556500	
33,121000	0,66	1,557970	
33,132000	0,66	1,559000	
33,143000	0,66	1,561050	
33,154000	0,66	1,561870	
33,165000	0,66	1,564080	
33,176000	0,66	1,566950	
33,187000	0,66	1,567690	
33,198000	0,66	1,567950	
33,209000	0,66	1,567000	
33,220000	0,66	1,567520	
33,231000	0,66	1,568060	
33,242000	0,66	1,567420	
33,253000	0,66	1,571120	
33,264000	0,66	1,573430	
33,275000	0,66	1,572990	
33,286000	0,66	1,572130	
33,297000	0,66	1,574850	
33,308000	0,66	1,575380	
33,319000	0,66	1,576610	
33,330000	0,66	1,575220	
33,341000	0,66	1,572050	
33,352000	0,66	1,576650	
33,363000	0,66	1,578950	
33,374000	0,66	1,578260	
33,385000	0,66	1,578000	
33,396000	0,66	1,577570	
33,407000	0,66	1,577180	
33,418000	0,66	1,580320	
33,429000	0,66	1,581750	
33,440000	0,66	1,585550	
33,451000	0,66	1,585530	
33,462000	0,66	1,582820	
33,473000	0,66	1,581740	
33,484000	0,66	1,584390	
33,495000	0,66	1,583120	
33,506000	0,66	1,580320	
33,517000	0,66	1,579690	
33,528000	0,66	1,578430	
33,539000	0,66	1,579760	
33,550000	0,66	1,580430	
33,561000	0,66	1,582770	
33,572000	0,66	1,584030	
33,583000	0,66	1,584600	
33,594000	0,66	1,584710	
33,605000	0,66	1,587810	
33,616000	0,66	1,590350	
33,627000	0,66	1,587950	
33,638000	0,66	1,588410	
33,649000	0,66	1,589160	
33,660000	0,66	1,586440	
33,671000	0,66	1,583330	
33,682000	0,66	1,581790	
33,693000	0,66	1,585720	
33,704000	0,66	1,587220	
33,715000	0,66	1,587410	
33,726000	0,66	1,587450	
33,737000	0,66	1,588410	
33,748000	0,66	1,587300	
33,759000	0,66	1,586220	
33,770000	0,66	1,588670	
33,781000	0,66	1,589820	
33,792000	0,66	1,588950	
33,803000	0,66	1,589390	
33,814000	0,66	1,588690	
33,825000	0,66	1,587440	
33,836000	0,66	1,588360	
33,847000	0,66	1,590030	
33,858000	0,66	1,590060	
33,869000	0,66	1,588530	
33,880000	0,66	1,588600	
33,891000	0,66	1,589090	
33,902000	0,66	1,588940	
33,913000	0,66	1,590160	
33,924000	0,66	1,589700	
33,935000	0,66	1,588830	
33,946000	0,66	1,591100	
33,957000	0,66	1,593800	
33,968000	0,66	1,594330	
33,979000	0,66	1,592570	
33,990000	0,66	1,591020	
34,001000	0,66	1,592600	
34,012000	0,66	1,592860	
34,023000	0,66	1,590470	
34,034000	0,66	1,589740	
34,045000	0,66	1,588830	
34,056000	0,66	1,587140	
34,067000	0,66	1,589980	
34,078000	0,66	1,590870	
34,089000	0,66	1,592990	
34,100000	0,66	1,590610	
34,111000	0,66	1,590890	
34,122000	0,66	1,590790	
34,133000	0,66	1,592140	
34,144000	0,66	1,594690	
34,155000	0,66	1,596210	
34,166000	0,66	1,597460	
34,177000	0,66	1,595970	
34,188000	0,66	1,594910	
34,199000	0,66	1,594790	
34,210000	0,66	1,598370	
34,221000	0,66	1,600650	
34,232000	0,66	1,603060	
34,243000	0,66	1,604300	
34,254000	0,66	1,603320	
34,265000	0,66	1,600460	
34,276000	0,66	1,601010	
34,287000	0,66	1,600010	
34,298000	0,66	1,601790	
34,309000	0,66	1,602640	
34,320000	0,66	1,602860	
34,331000	0,66	1,601290	
34,342000	0,66	1,600890	
34,353000	0,66	1,603160	
34,364000	0,66	1,607840	
34,375000	0,66	1,610320	
34,386000	0,66	1,610500	
34,397000	0,66	1,611610	
34,408000	0,66	1,610860	
34,419000	0,66	1,611200	
34,430000	0,66	1,612590	
34,441000	0,66	1,612970	
34,452000	0,66	1,611400	
34,463000	0,66	1,610600	
34,474000	0,66	1,611610	
34,485000	0,66	1,612640	
34,496000	0,66	1,613380	
34,507000	0,66	1,613070	
34,518000	0,66	1,612570	
34,529000	0,66	1,614310	
34,540000	0,66	1,616980	
34,551000	0,66	1,617480	
34,562000	0,66	1,616570	
34,573000	0,66	1,616200	
34,584000	0,66	1,616740	
34,595000	0,66	1,617290	
34,606000	0,66	1,619520	
34,617000	0,66	1,623470	
34,628000	0,66	1,623760	
34,639000	0,66	1,623930	
34,650000	0,66	1,621850	
34,661000	0,66	1,623620	
34,672000	0,66	1,625050	
34,683000	0,66	1,626190	
34,694000	0,66	1,625630	
34,705000	0,66	1,625520	
34,716000	0,66	1,622890	
34,727000	0,66	1,625160	
34,738000	0,66	1,626010	
34,749000	0,66	1,628470	
34,760000	0,66	1,630460	
34,771000	0,66	1,628740	
34,782000	0,66	1,630440	
34,793000	0,66	1,631570	
34,804000	0,66	1,631240	
34,815000	0,66	1,627910	
34,826000	0,66	1,627280	
34,837000	0,66	1,627700	
34,848000	0,66	1,632030	
34,859000	0,66	1,631120	
34,870000	0,66	1,628820	
34,881000	0,66	1,629200	
34,892000	0,66	1,630870	
34,903000	0,66	1,630580	
34,914000	0,66	1,630850	
34,925000	0,66	1,632730	
34,936000	0,66	1,633060	
34,947000	0,66	1,634360	
34,958000	0,66	1,635330	
34,969000	0,66	1,634440	
34,980000	0,66	1,634480	
34,991000	0,66	1,637730	
35,002000	0,66	1,640680	
35,013000	0,66	1,638940	
35,024000	0,66	1,641540	
35,035000	0,66	1,644940	
35,046000	0,66	1,645260	
35,057000	0,66	1,644440	
35,068000	0,66	1,645490	
35,079000	0,66	1,644330	
35,090000	0,66	1,645800	
35,101000	0,66	1,647390	
35,112000	0,66	1,651220	
35,123000	0,66	1,651640	
35,134000	0,66	1,652270	
35,145000	0,66	1,651640	
35,156000	0,66	1,649240	
35,167000	0,66	1,649450	
35,178000	0,66	1,651920	
35,189000	0,66	1,654540	
35,200000	0,66	1,655920	
35,211000	0,66	1,655910	
35,222000	0,66	1,653080	
35,233000	0,66	1,650710	
35,244000	0,66	1,653230	
35,255000	0,66	1,656210	
35,266000	0,66	1,656700	
35,277000	0,66	1,657780	
35,288000	0,66	1,658480	
35,299000	0,66	1,657800	
35,310000	0,66	1,659700	
35,321000	0,66	1,657660	
35,332000	0,66	1,654920	
35,343000	0,66	1,657570	
35,354000	0,66	1,660400	
35,365000	0,66	1,661130	
35,376000	0,66	1,661100	
35,387000	0,66	1,662220	
35,398000	0,66	1,665770	
35,409000	0,66	1,664120	
35,420000	0,66	1,665940	
35,431000	0,66	1,665570	
35,442000	0,66	1,668030	
35,453000	0,66	1,670420	
35,464000	0,66	1,671200	
35,475000	0,66	1,673470	
35,486000	0,66	1,676880	
35,497000	0,66	1,678850	
35,508000	0,66	1,679330	
35,519000	0,66	1,677930	
35,530000	0,66	1,676820	
35,541000	0,66	1,676500	
35,552000	0,66	1,674950	
35,563000	0,66	1,677000	
35,574000	0,66	1,679250	
35,585000	0,66	1,681820	
35,596000	0,66	1,681900	
35,607000	0,66	1,683900	
35,618000	0,66	1,686160	
35,629000	0,66	1,686690	
35,640000	0,66	1,686820	
35,651000	0,66	1,686650	
35,662000	0,66	1,689230	
35,673000	0,66	1,689530	
35,684000	0,66	1,687340	
35,695000	0,66	1,689870	
35,706000	0,66	1,687660	
35,717000	0,66	1,689250	
35,728000	0,66	1,692210	
35,739000	0,66	1,691710	
35,750000	0,66	1,692710	
35,761000	0,66	1,693770	
35,772000	0,66	1,694540	
35,783000	0,66	1,694210	
35,794000	0,66	1,695260	
35,805000	0,66	1,697960	
35,816000	0,66	1,697930	
35,827000	0,66	1,695420	
35,838000	0,66	1,694750	
35,849000	0,66	1,696100	
35,860000	0,66	1,700760	
35,871000	0,66	1,704000	
35,882000	0,66	1,705150	
35,893000	0,66	1,705130	
35,904000	0,66	1,705020	
35,915000	0,66	1,708840	
35,926000	0,66	1,711940	
35,937000	0,66	1,712870	
35,948000	0,66	1,712850	
35,959000	0,66	1,711740	
35,970000	0,66	1,712640	
35,981000	0,66	1,714870	
35,992000	0,66	1,715680	
36,003000	0,66	1,714950	
36,014000	0,66	1,718700	
36,025000	0,66	1,722410	
36,036000	0,66	1,722270	
36,047000	0,66	1,720310	
36,058000	0,66	1,721190	
36,069000	0,66	1,723720	
36,080000	0,66	1,724230	
36,091000	0,66	1,724390	
36,102000	0,66	1,723840	
36,113000	0,66	1,722310	
36,124000	0,66	1,722910	
36,135000	0,66	1,724790	
36,146000	0,66	1,727540	
36,157000	0,66	1,730730	
36,168000	0,66	1,730850	
36,179000	0,66	1,730750	
36,190000	0,66	1,731970	
36,201000	0,66	1,735980	
36,212000	0,66	1,739110	
36,223000	0,66	1,739250	
36,234000	0,66	1,739930	
36,245000	0,66	1,748020	
36,256000	0,66	1,752470	
36,267000	0,66	1,752450	
36,278000	0,66	1,752680	
36,289000	0,66	1,755430	
36,300000	0,66	1,757610	
36,311000	0,66	1,761830	
36,322000	0,66	1,762340	
36,333000	0,66	1,768890	
36,344000	0,66	1,772770	
36,355000	0,66	1,773230	
36,366000	0,66	1,774610	
36,377000	0,66	1,777600	
36,388000	0,66	1,778750	
36,399000	0,66	1,777950	
36,410000	0,66	1,780670	
36,421000	0,66	1,780850	
36,432000	0,66	1,777960	
36,443000	0,66	1,775410	
36,454000	0,66	1,775600	
36,465000	0,66	1,774320	
36,476000	0,66	1,773930	
36,487000	0,66	1,774890	
36,498000	0,66	1,774560	
36,509000	0,66	1,772210	
36,520000	0,66	1,772400	
36,531000	0,66	1,770840	
36,542000	0,66	1,772040	
36,553000	0,66	1,774850	
36,564000	0,66	1,776520	
36,575000	0,66	1,777100	
36,586000	0,66	1,777910	
36,597000	0,66	1,778430	
36,608000	0,66	1,779210	
36,619000	0,66	1,777660	
36,630000	0,66	1,773610	
36,641000	0,66	1,772930	
36,652000	0,66	1,776490	
36,663000	0,66	1,781270	
36,674000	0,66	1,783440	
36,685000	0,66	1,784370	
36,696000	0,66	1,785760	
36,707000	0,66	1,787160	
36,718000	0,66	1,787910	
36,729000	0,66	1,789830	
36,740000	0,66	1,791480	
36,751000	0,66	1,793990	
36,762000	0,66	1,796980	
36,773000	0,66	1,799780	
36,784000	0,66	1,803810	
36,795000	0,66	1,807600	
36,806000	0,66	1,809770	
36,817000	0,66	1,813030	
36,828000	0,66	1,816250	
36,839000	0,66	1,820440	
36,850000	0,66	1,823860	
36,861000	0,66	1,828610	
36,872000	0,66	1,834760	
36,883000	0,66	1,840000	
36,894000	0,66	1,841280	
36,905000	0,66	1,842840	
36,916000	0,66	1,849440	
36,927000	0,66	1,857850	
36,938000	0,66	1,861700	
36,949000	0,66	1,864870	
36,960000	0,66	1,870800	
36,971000	0,66	1,879830	
36,982000	0,66	1,885530	
36,993000	0,66	1,891650	
37,004000	0,66	1,894740	
37,015000	0,66	1,900700	
37,026000	0,66	1,905260	
37,037000	0,66	1,910600	
37,048000	0,66	1,915280	
37,059000	0,66	1,919440	
37,070000	0,66	1,926170	
37,081000	0,66	1,931870	
37,092000	0,66	1,938300	
37,103000	0,66	1,944190	
37,114000	0,66	1,950610	
37,125000	0,66	1,954800	
37,136000	0,66	1,961180	
37,147000	0,66	1,969730	
37,158000	0,66	1,976450	
37,169000	0,66	1,985520	
37,180000	0,66	1,994900	
37,191000	0,66	2,003800	
37,202000	0,66	2,013040	
37,213000	0,66	2,020520	
37,224000	0,66	2,028890	
37,235000	0,66	2,036640	
37,246000	0,66	2,046130	
37,257000	0,66	2,055380	
37,268000	0,66	2,064040	
37,279000	0,66	2,069980	
37,290000	0,66	2,074870	
37,301000	0,66	2,083200	
37,312000	0,66	2,093130	
37,323000	0,66	2,102310	
37,334000	0,66	2,111660	
37,345000	0,66	2,121240	
37,356000	0,66	2,129520	
37,367000	0,66	2,139690	
37,378000	0,66	2,151870	
37,389000	0,66	2,164280	
37,400000	0,66	2,174210	
37,411000	0,66	2,181190	
37,422000	0,66	2,192520	
37,433000	0,66	2,203360	
37,444000	0,66	2,213830	
37,455000	0,66	2,224020	
37,466000	0,66	2,232580	
37,477000	0,66	2,243210	
37,488000	0,66	2,257050	
37,499000	0,66	2,269520	
37,510000	0,66	2,278140	
37,521000	0,66	2,288090	
37,532000	0,66	2,298420	
37,543000	0,66	2,308590	
37,554000	0,66	2,319140	
37,565000	0,66	2,330210	
37,576000	0,66	2,343640	
37,587000	0,66	2,355410	
37,598000	0,66	2,365250	
37,609000	0,66	2,374620	
37,620000	0,66	2,381600	
37,631000	0,66	2,394390	
37,642000	0,66	2,406260	
37,653000	0,66	2,418760	
37,664000	0,66	2,428830	
37,675000	0,66	2,439620	
37,686000	0,66	2,452010	
37,697000	0,66	2,464100	
37,708000	0,66	2,474030	
37,719000	0,66	2,483680	
37,730000	0,66	2,497380	
37,741000	0,66	2,507410	
37,752000	0,66	2,517630	
37,763000	0,66	2,527980	
37,774000	0,66	2,535460	
37,785000	0,66	2,544570	
37,796000	0,66	2,554580	
37,807000	0,66	2,561870	
37,818000	0,66	2,567970	
37,829000	0,66	2,573540	
37,840000	0,66	2,581520	
37,851000	0,66	2,592070	
37,862000	0,66	2,599360	
37,873000	0,66	2,606250	
37,884000	0,66	2,615380	
37,895000	0,66	2,623470	
37,906000	0,66	2,627990	
37,917000	0,66	2,633080	
37,928000	0,66	2,642020	
37,939000	0,66	2,652940	
37,950000	0,66	2,659640	
37,961000	0,66	2,666730	
37,972000	0,66	2,676370	
37,983000	0,66	2,687070	
37,994000	0,66	2,700500	
38,005000	0,66	2,715060	
38,016000	0,66	2,727410	
38,027000	0,66	2,738150	
38,038000	0,66	2,747470	
38,049000	0,66	2,756480	
38,060000	0,66	2,768130	
38,071000	0,66	2,779160	
38,082000	0,66	2,789880	
38,093000	0,66	2,803610	
38,104000	0,66	2,818230	
38,115000	0,66	2,832000	
38,126000	0,66	2,847040	
38,137000	0,66	2,862750	
38,148000	0,66	2,878160	
38,159000	0,66	2,895130	
38,170000	0,66	2,914430	
38,181000	0,66	2,936050	
38,192000	0,66	2,956130	
38,203000	0,66	2,972530	
38,214000	0,66	2,987190	
38,225000	0,66	3,003000	
38,236000	0,66	3,022010	
38,247000	0,66	3,043140	
38,258000	0,66	3,060000	
38,269000	0,66	3,080230	
38,280000	0,66	3,099620	
38,291000	0,66	3,123940	
38,302000	0,66	3,152800	
38,313000	0,66	3,183460	
38,324000	0,66	3,216000	
38,335000	0,66	3,254340	
38,346000	0,66	3,290510	
38,357000	0,66	3,329060	
38,368000	0,66	3,359390	
38,379000	0,66	3,378860	
38,390000	0,66	3,392000	
38,401000	0,66	3,396620	
38,412000	0,66	3,399800	
38,423000	0,66	3,394410	
38,434000	0,66	3,381060	
38,445000	0,66	3,362890	
38,456000	0,66	3,345900	
38,467000	0,66	3,328040	
38,478000	0,66	3,311330	
38,489000	0,66	3,298170	
38,500000	0,66	3,289380	
38,511000	0,66	3,281520	
38,522000	0,66	3,277810	
38,533000	0,66	3,276300	
38,544000	0,66	3,279010	
38,555000	0,66	3,281970	
38,566000	0,66	3,281680	
38,577000	0,66	3,285030	
38,588000	0,66	3,288720	
38,599000	0,66	3,290730	
38,610000	0,66	3,293380	
38,621000	0,66	3,294890	
38,632000	0,66	3,295840	
38,643000	0,66	3,299700	
38,654000	0,66	3,304620	
38,665000	0,66	3,309040	
38,676000	0,66	3,312590	
38,687000	0,66	3,314320	
38,698000	0,66	3,314900	
38,709000	0,66	3,317290	
38,720000	0,66	3,321050	
38,731000	0,66	3,322680	
38,742000	0,66	3,322840	
38,753000	0,66	3,323230	
38,764000	0,66	3,324300	
38,775000	0,66	3,326940	
38,786000	0,66	3,329480	
38,797000	0,66	3,329800	
38,808000	0,66	3,330230	
38,819000	0,66	3,329560	
38,830000	0,66	3,328650	
38,841000	0,66	3,330130	
38,852000	0,66	3,332230	
38,863000	0,66	3,334070	
38,874000	0,66	3,337770	
38,885000	0,66	3,343360	
38,896000	0,66	3,350120	
38,907000	0,66	3,353680	
38,918000	0,66	3,357770	
38,929000	0,66	3,360230	
38,940000	0,66	3,365140	
38,951000	0,66	3,372230	
38,962000	0,66	3,380360	
38,973000	0,66	3,390270	
38,984000	0,66	3,396100	
38,995000	0,66	3,400340	
39,006000	0,66	3,406300	
39,017000	0,66	3,413030	
39,028000	0,66	3,418510	
39,039000	0,66	3,425190	
39,050000	0,66	3,430370	
39,061000	0,66	3,434730	
39,072000	0,66	3,436990	
39,083000	0,66	3,439720	
39,094000	0,66	3,443630	
39,105000	0,66	3,447030	
39,116000	0,66	3,450950	
39,127000	0,66	3,454980	
39,138000	0,66	3,457040	
39,149000	0,66	3,457150	
39,160000	0,66	3,457430	
39,171000	0,66	3,459070	
39,182000	0,66	3,461300	
39,193000	0,66	3,463330	
39,204000	0,66	3,465710	
39,215000	0,66	3,468850	
39,226000	0,66	3,474020	
39,237000	0,66	3,477700	
39,248000	0,66	3,478810	
39,259000	0,66	3,483370	
39,270000	0,66	3,486290	
39,281000	0,66	3,487290	
39,292000	0,66	3,490890	
39,303000	0,66	3,492670	
39,314000	0,66	3,494530	
39,325000	0,66	3,495520	
39,336000	0,66	3,499710	
39,347000	0,66	3,509210	
39,358000	0,66	3,519590	
39,369000	0,66	3,525200	
39,380000	0,66	3,530400	
39,391000	0,66	3,539120	
39,402000	0,66	3,547580	
39,413000	0,66	3,554840	
39,424000	0,66	3,560670	
39,435000	0,66	3,567030	
39,446000	0,66	3,576350	
39,457000	0,66	3,588580	
39,468000	0,66	3,601800	
39,479000	0,66	3,614200	
39,490000	0,66	3,627540	
39,501000	0,66	3,640700	
39,512000	0,66	3,656770	
39,523000	0,66	3,672520	
39,534000	0,66	3,687150	
39,545000	0,66	3,704470	
39,556000	0,66	3,720510	
39,567000	0,66	3,736480	
39,578000	0,66	3,752470	
39,589000	0,66	3,766420	
39,600000	0,66	3,780370	
39,611000	0,66	3,793780	
39,622000	0,66	3,809180	
39,633000	0,66	3,825700	
39,644000	0,66	3,838620	
39,655000	0,66	3,851650	
39,666000	0,66	3,861520	
39,677000	0,66	3,870580	
39,688000	0,66	3,875700	
39,699000	0,66	3,879840	
39,710000	0,66	3,886840	
39,721000	0,66	3,889190	
39,732000	0,66	3,887930	
39,743000	0,66	3,885610	
39,754000	0,66	3,883380	
39,765000	0,66	3,882100	
39,776000	0,66	3,882580	
39,787000	0,66	3,877820	
39,798000	0,66	3,872230	
39,809000	0,66	3,864330	
39,820000	0,66	3,858880	
39,831000	0,66	3,855930	
39,842000	0,66	3,853000	
39,853000	0,66	3,850890	
39,864000	0,66	3,847990	
39,875000	0,66	3,844470	
39,886000	0,66	3,838590	
39,897000	0,66	3,836830	
39,908000	0,66	3,835600	
39,919000	0,66	3,837760	
39,930000	0,66	3,834110	
39,941000	0,66	3,830250	
39,952000	0,66	3,827890	
39,963000	0,66	3,825090	
39,974000	0,66	3,824540	
39,985000	0,66	3,825350	
39,996000	0,66	3,827060	
40,007000	0,66	3,828780	
