Filepath	C:\Chromel\data\Analytik\Walther group\Guido\mechanosense\GCR268.SEQ\UV_VIS_3.CHL\296.acd
Channel	UV_VIS_3

Sample Information:
Datasource	PC-8NN4M2J_local
Sequence	Analytik\Walther group\Guido\mechanosense\GCR268.SEQ
Sample	200717-1
Sample Number	2
Sample Position	RA1
Sample ID	296
Comment	milliQ background 100uL
QNT method	default
PGM file	single-component-3 40min 60C 0,4mLmin
Type	unknown
Status	finished
Date	17.07.2020
Time	08:58:11
Injection Volume (µl)	100,00
Dilution Factor	1,000000
Amount	1,000000
Weight	1,000000

Raw Data Header Information:
Time Min. (min)	0,000
Time Max. (min)	40,007
Raw-Time Min. (min)	0,000
Raw-Time Max. (min)	40,007
Data Points	3638
Detector	VWD3000.dll
Preferred Read Mode	Unknown
Write Mode	Unknown
Data System	Chromeleon
Version High	06
Version Low	80
Build No.	3160
File Format Version	11
Generation Type	8
File ID	239054205
File Status	16
GUID	8f70368e-c7fa-11ea-b409-00184d71f7da
Signal Factor	0,000010
Signal Dimension	mAU
Signal Unit	Absorbance
Signal Min.	-1,93775
Signal Max.	1,559090
Channel Name	UV_VIS_3
Driver Name	VWD-3x00 Detector
Min. Step	66
Max. Step	66
Average Step	66

Signal Parameter Information:
Signal Info	WVL:610 nm
Wavelength	610 nm
	 




















Raw Data:
Time(min)	Step(sec)	Value(mAU)
0,000000	0,00	-0,090800	
0,011000	0,66	-0,090110	
0,022000	0,66	-0,083020	
0,033000	0,66	-0,078730	
0,044000	0,66	-0,078650	
0,055000	0,66	-0,089640	
0,066000	0,66	-0,089330	
0,077000	0,66	-0,080460	
0,088000	0,66	-0,076610	
0,099000	0,66	-0,073880	
0,110000	0,66	-0,068170	
0,121000	0,66	-0,078820	
0,132000	0,66	-0,089900	
0,143000	0,66	-0,088330	
0,154000	0,66	-0,082090	
0,165000	0,66	-0,073510	
0,176000	0,66	-0,071400	
0,187000	0,66	-0,073590	
0,198000	0,66	-0,077880	
0,209000	0,66	-0,080300	
0,220000	0,66	-0,087240	
0,231000	0,66	-0,088760	
0,242000	0,66	-0,094150	
0,253000	0,66	-0,092010	
0,264000	0,66	-0,093480	
0,275000	0,66	-0,107880	
0,286000	0,66	-0,106170	
0,297000	0,66	-0,105420	
0,308000	0,66	-0,116790	
0,319000	0,66	-0,117640	
0,330000	0,66	-0,111030	
0,341000	0,66	-0,104490	
0,352000	0,66	-0,106700	
0,363000	0,66	-0,108710	
0,374000	0,66	-0,102530	
0,385000	0,66	-0,099310	
0,396000	0,66	-0,097180	
0,407000	0,66	-0,095830	
0,418000	0,66	-0,103210	
0,429000	0,66	-0,110480	
0,440000	0,66	-0,106500	
0,451000	0,66	-0,103040	
0,462000	0,66	-0,111210	
0,473000	0,66	-0,114860	
0,484000	0,66	-0,104830	
0,495000	0,66	-0,112130	
0,506000	0,66	-0,120060	
0,517000	0,66	-0,115500	
0,528000	0,66	-0,110220	
0,539000	0,66	-0,108840	
0,550000	0,66	-0,105620	
0,561000	0,66	-0,095150	
0,572000	0,66	-0,083510	
0,583000	0,66	-0,071980	
0,594000	0,66	-0,069150	
0,605000	0,66	-0,072090	
0,616000	0,66	-0,085590	
0,627000	0,66	-0,095440	
0,638000	0,66	-0,099870	
0,649000	0,66	-0,094100	
0,660000	0,66	-0,100200	
0,671000	0,66	-0,108150	
0,682000	0,66	-0,111920	
0,693000	0,66	-0,117100	
0,704000	0,66	-0,132620	
0,715000	0,66	-0,123130	
0,726000	0,66	-0,121030	
0,737000	0,66	-0,127840	
0,748000	0,66	-0,136330	
0,759000	0,66	-0,122340	
0,770000	0,66	-0,119520	
0,781000	0,66	-0,122610	
0,792000	0,66	-0,126000	
0,803000	0,66	-0,126210	
0,814000	0,66	-0,107220	
0,825000	0,66	-0,097810	
0,836000	0,66	-0,102660	
0,847000	0,66	-0,109000	
0,858000	0,66	-0,121940	
0,869000	0,66	-0,129230	
0,880000	0,66	-0,133500	
0,891000	0,66	-0,134670	
0,902000	0,66	-0,129190	
0,913000	0,66	-0,115650	
0,924000	0,66	-0,105610	
0,935000	0,66	-0,113890	
0,946000	0,66	-0,114350	
0,957000	0,66	-0,126760	
0,968000	0,66	-0,130180	
0,979000	0,66	-0,125310	
0,990000	0,66	-0,127380	
1,001000	0,66	-0,128110	
1,012000	0,66	-0,126510	
1,023000	0,66	-0,125340	
1,034000	0,66	-0,129050	
1,045000	0,66	-0,130380	
1,056000	0,66	-0,126370	
1,067000	0,66	-0,122230	
1,078000	0,66	-0,121530	
1,089000	0,66	-0,117840	
1,100000	0,66	-0,112920	
1,111000	0,66	-0,112650	
1,122000	0,66	-0,108650	
1,133000	0,66	-0,111570	
1,144000	0,66	-0,121690	
1,155000	0,66	-0,122210	
1,166000	0,66	-0,115340	
1,177000	0,66	-0,110930	
1,188000	0,66	-0,112520	
1,199000	0,66	-0,117760	
1,210000	0,66	-0,105590	
1,221000	0,66	-0,107200	
1,232000	0,66	-0,111550	
1,243000	0,66	-0,121170	
1,254000	0,66	-0,118440	
1,265000	0,66	-0,106800	
1,276000	0,66	-0,091890	
1,287000	0,66	-0,044710	
1,298000	0,66	0,063320	
1,309000	0,66	0,221400	
1,320000	0,66	0,422130	
1,331000	0,66	0,651410	
1,342000	0,66	0,876660	
1,353000	0,66	1,077780	
1,364000	0,66	1,254010	
1,375000	0,66	1,395020	
1,386000	0,66	1,501970	
1,397000	0,66	1,556620	
1,408000	0,66	1,559090	
1,419000	0,66	1,510910	
1,430000	0,66	1,415700	
1,441000	0,66	1,293480	
1,452000	0,66	1,147840	
1,463000	0,66	0,991160	
1,474000	0,66	0,822890	
1,485000	0,66	0,654520	
1,496000	0,66	0,481060	
1,507000	0,66	0,325490	
1,518000	0,66	0,168400	
1,529000	0,66	0,010690	
1,540000	0,66	-0,121960	
1,551000	0,66	-0,252280	
1,562000	0,66	-0,380040	
1,573000	0,66	-0,512230	
1,584000	0,66	-0,624950	
1,595000	0,66	-0,744140	
1,606000	0,66	-0,854900	
1,617000	0,66	-0,942590	
1,628000	0,66	-1,009200	
1,639000	0,66	-1,059180	
1,650000	0,66	-1,095260	
1,661000	0,66	-1,113010	
1,672000	0,66	-1,100500	
1,683000	0,66	-1,062450	
1,694000	0,66	-1,004270	
1,705000	0,66	-0,937590	
1,716000	0,66	-0,801860	
1,727000	0,66	-0,576010	
1,738000	0,66	-0,466130	
1,749000	0,66	-0,459910	
1,760000	0,66	-0,419740	
1,771000	0,66	-0,367850	
1,782000	0,66	-0,319330	
1,793000	0,66	-0,264780	
1,804000	0,66	-0,205000	
1,815000	0,66	-0,155640	
1,826000	0,66	-0,117750	
1,837000	0,66	-0,074570	
1,848000	0,66	-0,029050	
1,859000	0,66	0,010600	
1,870000	0,66	0,050750	
1,881000	0,66	0,072940	
1,892000	0,66	0,090820	
1,903000	0,66	0,108460	
1,914000	0,66	0,129230	
1,925000	0,66	0,139870	
1,936000	0,66	0,146250	
1,947000	0,66	0,155660	
1,958000	0,66	0,163980	
1,969000	0,66	0,173380	
1,980000	0,66	0,187780	
1,991000	0,66	0,193860	
2,002000	0,66	0,206960	
2,013000	0,66	0,208620	
2,024000	0,66	0,202500	
2,035000	0,66	0,196310	
2,046000	0,66	0,205510	
2,057000	0,66	0,200150	
2,068000	0,66	0,197990	
2,079000	0,66	0,205270	
2,090000	0,66	0,215990	
2,101000	0,66	0,212190	
2,112000	0,66	0,206460	
2,123000	0,66	0,212490	
2,134000	0,66	0,213410	
2,145000	0,66	0,211050	
2,156000	0,66	0,202270	
2,167000	0,66	0,150770	
2,178000	0,66	-0,073080	
2,189000	0,66	-0,564080	
2,200000	0,66	-1,152020	
2,211000	0,66	-1,629530	
2,222000	0,66	-1,896320	
2,233000	0,66	-1,937750	
2,244000	0,66	-1,831600	
2,255000	0,66	-1,645540	
2,266000	0,66	-1,429050	
2,277000	0,66	-1,197890	
2,288000	0,66	-0,987030	
2,299000	0,66	-0,811960	
2,310000	0,66	-0,656210	
2,321000	0,66	-0,537800	
2,332000	0,66	-0,445410	
2,343000	0,66	-0,372000	
2,354000	0,66	-0,310420	
2,365000	0,66	-0,268180	
2,376000	0,66	-0,234060	
2,387000	0,66	-0,197150	
2,398000	0,66	-0,172670	
2,409000	0,66	-0,158870	
2,420000	0,66	-0,156390	
2,431000	0,66	-0,145400	
2,442000	0,66	-0,139980	
2,453000	0,66	-0,135230	
2,464000	0,66	-0,124480	
2,475000	0,66	-0,120240	
2,486000	0,66	-0,123660	
2,497000	0,66	-0,129270	
2,508000	0,66	-0,125430	
2,519000	0,66	-0,122210	
2,530000	0,66	-0,113720	
2,541000	0,66	-0,110200	
2,552000	0,66	-0,115570	
2,563000	0,66	-0,117540	
2,574000	0,66	-0,121060	
2,585000	0,66	-0,124400	
2,596000	0,66	-0,124630	
2,607000	0,66	-0,121300	
2,618000	0,66	-0,122070	
2,629000	0,66	-0,125950	
2,640000	0,66	-0,127690	
2,651000	0,66	-0,129400	
2,662000	0,66	-0,133270	
2,673000	0,66	-0,137020	
2,684000	0,66	-0,141020	
2,695000	0,66	-0,141680	
2,706000	0,66	-0,148890	
2,717000	0,66	-0,148910	
2,728000	0,66	-0,154730	
2,739000	0,66	-0,148860	
2,750000	0,66	-0,153510	
2,761000	0,66	-0,156650	
2,772000	0,66	-0,152680	
2,783000	0,66	-0,151100	
2,794000	0,66	-0,149850	
2,805000	0,66	-0,155230	
2,816000	0,66	-0,156870	
2,827000	0,66	-0,153420	
2,838000	0,66	-0,149390	
2,849000	0,66	-0,144510	
2,860000	0,66	-0,150750	
2,871000	0,66	-0,141380	
2,882000	0,66	-0,143100	
2,893000	0,66	-0,143690	
2,904000	0,66	-0,150010	
2,915000	0,66	-0,142370	
2,926000	0,66	-0,138090	
2,937000	0,66	-0,134020	
2,948000	0,66	-0,136150	
2,959000	0,66	-0,144210	
2,970000	0,66	-0,153820	
2,981000	0,66	-0,150000	
2,992000	0,66	-0,148380	
3,003000	0,66	-0,156850	
3,014000	0,66	-0,161400	
3,025000	0,66	-0,157220	
3,036000	0,66	-0,158340	
3,047000	0,66	-0,160550	
3,058000	0,66	-0,155860	
3,069000	0,66	-0,146510	
3,080000	0,66	-0,145260	
3,091000	0,66	-0,153300	
3,102000	0,66	-0,154240	
3,113000	0,66	-0,150550	
3,124000	0,66	-0,149860	
3,135000	0,66	-0,147040	
3,146000	0,66	-0,140680	
3,157000	0,66	-0,145420	
3,168000	0,66	-0,154140	
3,179000	0,66	-0,150680	
3,190000	0,66	-0,143490	
3,201000	0,66	-0,139790	
3,212000	0,66	-0,141720	
3,223000	0,66	-0,146460	
3,234000	0,66	-0,145030	
3,245000	0,66	-0,138600	
3,256000	0,66	-0,135440	
3,267000	0,66	-0,132010	
3,278000	0,66	-0,136490	
3,289000	0,66	-0,154780	
3,300000	0,66	-0,172060	
3,311000	0,66	-0,160440	
3,322000	0,66	-0,149170	
3,333000	0,66	-0,148270	
3,344000	0,66	-0,143530	
3,355000	0,66	-0,136110	
3,366000	0,66	-0,135000	
3,377000	0,66	-0,142090	
3,388000	0,66	-0,141920	
3,399000	0,66	-0,141240	
3,410000	0,66	-0,146840	
3,421000	0,66	-0,156260	
3,432000	0,66	-0,157350	
3,443000	0,66	-0,154760	
3,454000	0,66	-0,154270	
3,465000	0,66	-0,157400	
3,476000	0,66	-0,159520	
3,487000	0,66	-0,167990	
3,498000	0,66	-0,157760	
3,509000	0,66	-0,147310	
3,520000	0,66	-0,148580	
3,531000	0,66	-0,138240	
3,542000	0,66	-0,131060	
3,553000	0,66	-0,127440	
3,564000	0,66	-0,127680	
3,575000	0,66	-0,127480	
3,586000	0,66	-0,127030	
3,597000	0,66	-0,135900	
3,608000	0,66	-0,137370	
3,619000	0,66	-0,124230	
3,630000	0,66	-0,116340	
3,641000	0,66	-0,126080	
3,652000	0,66	-0,125810	
3,663000	0,66	-0,107910	
3,674000	0,66	-0,101610	
3,685000	0,66	-0,111390	
3,696000	0,66	-0,120600	
3,707000	0,66	-0,129880	
3,718000	0,66	-0,132260	
3,729000	0,66	-0,137800	
3,740000	0,66	-0,135430	
3,751000	0,66	-0,128450	
3,762000	0,66	-0,122460	
3,773000	0,66	-0,110870	
3,784000	0,66	-0,117150	
3,795000	0,66	-0,124860	
3,806000	0,66	-0,116770	
3,817000	0,66	-0,115000	
3,828000	0,66	-0,120210	
3,839000	0,66	-0,117730	
3,850000	0,66	-0,114610	
3,861000	0,66	-0,117180	
3,872000	0,66	-0,118280	
3,883000	0,66	-0,112510	
3,894000	0,66	-0,109110	
3,905000	0,66	-0,108430	
3,916000	0,66	-0,110340	
3,927000	0,66	-0,120230	
3,938000	0,66	-0,127640	
3,949000	0,66	-0,137610	
3,960000	0,66	-0,138080	
3,971000	0,66	-0,134590	
3,982000	0,66	-0,134450	
3,993000	0,66	-0,130800	
4,004000	0,66	-0,137980	
4,015000	0,66	-0,141930	
4,026000	0,66	-0,147840	
4,037000	0,66	-0,147770	
4,048000	0,66	-0,149270	
4,059000	0,66	-0,148010	
4,070000	0,66	-0,141370	
4,081000	0,66	-0,128640	
4,092000	0,66	-0,129310	
4,103000	0,66	-0,125690	
4,114000	0,66	-0,120430	
4,125000	0,66	-0,128930	
4,136000	0,66	-0,134700	
4,147000	0,66	-0,129420	
4,158000	0,66	-0,127670	
4,169000	0,66	-0,133660	
4,180000	0,66	-0,138630	
4,191000	0,66	-0,127680	
4,202000	0,66	-0,128080	
4,213000	0,66	-0,131830	
4,224000	0,66	-0,126480	
4,235000	0,66	-0,134720	
4,246000	0,66	-0,139560	
4,257000	0,66	-0,137610	
4,268000	0,66	-0,145480	
4,279000	0,66	-0,161680	
4,290000	0,66	-0,170290	
4,301000	0,66	-0,162220	
4,312000	0,66	-0,155860	
4,323000	0,66	-0,158250	
4,334000	0,66	-0,153200	
4,345000	0,66	-0,156110	
4,356000	0,66	-0,158590	
4,367000	0,66	-0,156340	
4,378000	0,66	-0,164860	
4,389000	0,66	-0,167400	
4,400000	0,66	-0,157880	
4,411000	0,66	-0,158900	
4,422000	0,66	-0,164090	
4,433000	0,66	-0,153180	
4,444000	0,66	-0,152200	
4,455000	0,66	-0,152780	
4,466000	0,66	-0,156660	
4,477000	0,66	-0,153810	
4,488000	0,66	-0,146230	
4,499000	0,66	-0,144020	
4,510000	0,66	-0,144450	
4,521000	0,66	-0,151240	
4,532000	0,66	-0,159590	
4,543000	0,66	-0,156790	
4,554000	0,66	-0,155670	
4,565000	0,66	-0,159600	
4,576000	0,66	-0,160220	
4,587000	0,66	-0,154290	
4,598000	0,66	-0,151580	
4,609000	0,66	-0,161130	
4,620000	0,66	-0,166660	
4,631000	0,66	-0,175060	
4,642000	0,66	-0,179090	
4,653000	0,66	-0,173740	
4,664000	0,66	-0,165370	
4,675000	0,66	-0,159050	
4,686000	0,66	-0,155180	
4,697000	0,66	-0,147730	
4,708000	0,66	-0,140870	
4,719000	0,66	-0,160270	
4,730000	0,66	-0,172160	
4,741000	0,66	-0,167220	
4,752000	0,66	-0,168030	
4,763000	0,66	-0,161420	
4,774000	0,66	-0,150430	
4,785000	0,66	-0,136470	
4,796000	0,66	-0,142910	
4,807000	0,66	-0,141220	
4,818000	0,66	-0,140610	
4,829000	0,66	-0,141650	
4,840000	0,66	-0,141930	
4,851000	0,66	-0,146990	
4,862000	0,66	-0,150540	
4,873000	0,66	-0,141720	
4,884000	0,66	-0,133080	
4,895000	0,66	-0,138030	
4,906000	0,66	-0,134500	
4,917000	0,66	-0,130820	
4,928000	0,66	-0,147680	
4,939000	0,66	-0,157280	
4,950000	0,66	-0,152290	
4,961000	0,66	-0,146770	
4,972000	0,66	-0,160440	
4,983000	0,66	-0,161980	
4,994000	0,66	-0,154490	
5,005000	0,66	-0,145100	
5,016000	0,66	-0,151470	
5,027000	0,66	-0,160930	
5,038000	0,66	-0,161470	
5,049000	0,66	-0,161650	
5,060000	0,66	-0,159810	
5,071000	0,66	-0,153620	
5,082000	0,66	-0,158840	
5,093000	0,66	-0,163000	
5,104000	0,66	-0,160020	
5,115000	0,66	-0,154680	
5,126000	0,66	-0,145520	
5,137000	0,66	-0,143680	
5,148000	0,66	-0,149910	
5,159000	0,66	-0,153470	
5,170000	0,66	-0,152460	
5,181000	0,66	-0,151850	
5,192000	0,66	-0,159840	
5,203000	0,66	-0,153360	
5,214000	0,66	-0,144800	
5,225000	0,66	-0,148310	
5,236000	0,66	-0,153260	
5,247000	0,66	-0,147170	
5,258000	0,66	-0,135800	
5,269000	0,66	-0,132860	
5,280000	0,66	-0,139680	
5,291000	0,66	-0,156000	
5,302000	0,66	-0,167890	
5,313000	0,66	-0,171310	
5,324000	0,66	-0,174330	
5,335000	0,66	-0,171100	
5,346000	0,66	-0,158060	
5,357000	0,66	-0,159010	
5,368000	0,66	-0,163320	
5,379000	0,66	-0,157430	
5,390000	0,66	-0,151680	
5,401000	0,66	-0,154040	
5,412000	0,66	-0,147540	
5,423000	0,66	-0,151380	
5,434000	0,66	-0,153390	
5,445000	0,66	-0,160740	
5,456000	0,66	-0,163550	
5,467000	0,66	-0,169230	
5,478000	0,66	-0,169830	
5,489000	0,66	-0,167180	
5,500000	0,66	-0,161320	
5,511000	0,66	-0,159080	
5,522000	0,66	-0,173670	
5,533000	0,66	-0,178390	
5,544000	0,66	-0,186950	
5,555000	0,66	-0,183780	
5,566000	0,66	-0,190910	
5,577000	0,66	-0,204410	
5,588000	0,66	-0,203750	
5,599000	0,66	-0,197300	
5,610000	0,66	-0,199020	
5,621000	0,66	-0,210060	
5,632000	0,66	-0,210630	
5,643000	0,66	-0,211660	
5,654000	0,66	-0,212010	
5,665000	0,66	-0,198980	
5,676000	0,66	-0,187650	
5,687000	0,66	-0,184160	
5,698000	0,66	-0,196950	
5,709000	0,66	-0,196890	
5,720000	0,66	-0,210080	
5,731000	0,66	-0,209730	
5,742000	0,66	-0,206120	
5,753000	0,66	-0,200650	
5,764000	0,66	-0,200000	
5,775000	0,66	-0,200890	
5,786000	0,66	-0,205020	
5,797000	0,66	-0,211570	
5,808000	0,66	-0,214430	
5,819000	0,66	-0,209970	
5,830000	0,66	-0,201920	
5,841000	0,66	-0,192900	
5,852000	0,66	-0,195190	
5,863000	0,66	-0,210590	
5,874000	0,66	-0,216090	
5,885000	0,66	-0,206950	
5,896000	0,66	-0,199850	
5,907000	0,66	-0,198710	
5,918000	0,66	-0,193180	
5,929000	0,66	-0,190760	
5,940000	0,66	-0,190630	
5,951000	0,66	-0,192880	
5,962000	0,66	-0,197110	
5,973000	0,66	-0,196070	
5,984000	0,66	-0,194190	
5,995000	0,66	-0,196280	
6,006000	0,66	-0,200130	
6,017000	0,66	-0,203990	
6,028000	0,66	-0,210830	
6,039000	0,66	-0,207480	
6,050000	0,66	-0,204290	
6,061000	0,66	-0,201520	
6,072000	0,66	-0,199770	
6,083000	0,66	-0,211450	
6,094000	0,66	-0,219520	
6,105000	0,66	-0,227110	
6,116000	0,66	-0,230670	
6,127000	0,66	-0,221620	
6,138000	0,66	-0,226370	
6,149000	0,66	-0,233400	
6,160000	0,66	-0,229760	
6,171000	0,66	-0,227270	
6,182000	0,66	-0,235080	
6,193000	0,66	-0,231900	
6,204000	0,66	-0,237880	
6,215000	0,66	-0,238780	
6,226000	0,66	-0,230900	
6,237000	0,66	-0,232420	
6,248000	0,66	-0,239910	
6,259000	0,66	-0,243620	
6,270000	0,66	-0,243530	
6,281000	0,66	-0,237770	
6,292000	0,66	-0,232960	
6,303000	0,66	-0,227570	
6,314000	0,66	-0,227850	
6,325000	0,66	-0,228080	
6,336000	0,66	-0,232120	
6,347000	0,66	-0,240080	
6,358000	0,66	-0,237850	
6,369000	0,66	-0,236030	
6,380000	0,66	-0,239200	
6,391000	0,66	-0,241450	
6,402000	0,66	-0,247860	
6,413000	0,66	-0,246200	
6,424000	0,66	-0,236300	
6,435000	0,66	-0,236980	
6,446000	0,66	-0,240070	
6,457000	0,66	-0,242270	
6,468000	0,66	-0,242850	
6,479000	0,66	-0,248310	
6,490000	0,66	-0,263670	
6,501000	0,66	-0,273160	
6,512000	0,66	-0,271760	
6,523000	0,66	-0,267080	
6,534000	0,66	-0,263570	
6,545000	0,66	-0,260650	
6,556000	0,66	-0,256130	
6,567000	0,66	-0,257760	
6,578000	0,66	-0,252250	
6,589000	0,66	-0,248330	
6,600000	0,66	-0,250300	
6,611000	0,66	-0,252240	
6,622000	0,66	-0,252200	
6,633000	0,66	-0,252450	
6,644000	0,66	-0,259170	
6,655000	0,66	-0,265250	
6,666000	0,66	-0,260180	
6,677000	0,66	-0,257040	
6,688000	0,66	-0,259230	
6,699000	0,66	-0,256430	
6,710000	0,66	-0,253790	
6,721000	0,66	-0,246660	
6,732000	0,66	-0,246020	
6,743000	0,66	-0,246920	
6,754000	0,66	-0,248910	
6,765000	0,66	-0,259070	
6,776000	0,66	-0,277090	
6,787000	0,66	-0,283150	
6,798000	0,66	-0,279030	
6,809000	0,66	-0,274460	
6,820000	0,66	-0,274510	
6,831000	0,66	-0,281870	
6,842000	0,66	-0,277190	
6,853000	0,66	-0,276600	
6,864000	0,66	-0,270230	
6,875000	0,66	-0,263790	
6,886000	0,66	-0,248570	
6,897000	0,66	-0,249300	
6,908000	0,66	-0,254070	
6,919000	0,66	-0,245390	
6,930000	0,66	-0,241530	
6,941000	0,66	-0,252010	
6,952000	0,66	-0,256960	
6,963000	0,66	-0,247350	
6,974000	0,66	-0,256810	
6,985000	0,66	-0,250530	
6,996000	0,66	-0,243610	
7,007000	0,66	-0,249670	
7,018000	0,66	-0,250490	
7,029000	0,66	-0,258340	
7,040000	0,66	-0,274560	
7,051000	0,66	-0,267070	
7,062000	0,66	-0,267830	
7,073000	0,66	-0,268150	
7,084000	0,66	-0,271550	
7,095000	0,66	-0,272330	
7,106000	0,66	-0,266800	
7,117000	0,66	-0,274380	
7,128000	0,66	-0,270330	
7,139000	0,66	-0,256600	
7,150000	0,66	-0,259260	
7,161000	0,66	-0,249700	
7,172000	0,66	-0,250800	
7,183000	0,66	-0,258150	
7,194000	0,66	-0,254540	
7,205000	0,66	-0,248980	
7,216000	0,66	-0,252330	
7,227000	0,66	-0,256120	
7,238000	0,66	-0,265160	
7,249000	0,66	-0,270110	
7,260000	0,66	-0,269800	
7,271000	0,66	-0,266580	
7,282000	0,66	-0,272420	
7,293000	0,66	-0,277120	
7,304000	0,66	-0,275410	
7,315000	0,66	-0,272060	
7,326000	0,66	-0,270720	
7,337000	0,66	-0,261580	
7,348000	0,66	-0,253060	
7,359000	0,66	-0,254620	
7,370000	0,66	-0,246700	
7,381000	0,66	-0,244550	
7,392000	0,66	-0,252540	
7,403000	0,66	-0,248040	
7,414000	0,66	-0,251370	
7,425000	0,66	-0,259040	
7,436000	0,66	-0,256280	
7,447000	0,66	-0,258190	
7,458000	0,66	-0,259580	
7,469000	0,66	-0,266830	
7,480000	0,66	-0,276690	
7,491000	0,66	-0,283390	
7,502000	0,66	-0,274100	
7,513000	0,66	-0,263210	
7,524000	0,66	-0,269570	
7,535000	0,66	-0,263690	
7,546000	0,66	-0,263500	
7,557000	0,66	-0,268700	
7,568000	0,66	-0,268550	
7,579000	0,66	-0,268740	
7,590000	0,66	-0,258660	
7,601000	0,66	-0,259760	
7,612000	0,66	-0,259710	
7,623000	0,66	-0,267210	
7,634000	0,66	-0,272560	
7,645000	0,66	-0,266630	
7,656000	0,66	-0,262520	
7,667000	0,66	-0,255930	
7,678000	0,66	-0,260200	
7,689000	0,66	-0,260260	
7,700000	0,66	-0,263500	
7,711000	0,66	-0,268160	
7,722000	0,66	-0,267010	
7,733000	0,66	-0,264540	
7,744000	0,66	-0,268500	
7,755000	0,66	-0,263910	
7,766000	0,66	-0,262530	
7,777000	0,66	-0,262530	
7,788000	0,66	-0,262660	
7,799000	0,66	-0,271140	
7,810000	0,66	-0,271430	
7,821000	0,66	-0,256690	
7,832000	0,66	-0,253470	
7,843000	0,66	-0,257220	
7,854000	0,66	-0,262170	
7,865000	0,66	-0,264320	
7,876000	0,66	-0,278900	
7,887000	0,66	-0,280050	
7,898000	0,66	-0,278570	
7,909000	0,66	-0,276840	
7,920000	0,66	-0,273090	
7,931000	0,66	-0,266070	
7,942000	0,66	-0,266720	
7,953000	0,66	-0,273280	
7,964000	0,66	-0,266810	
7,975000	0,66	-0,262880	
7,986000	0,66	-0,265760	
7,997000	0,66	-0,257560	
8,008000	0,66	-0,242370	
8,019000	0,66	-0,238860	
8,030000	0,66	-0,242850	
8,041000	0,66	-0,247100	
8,052000	0,66	-0,254290	
8,063000	0,66	-0,248090	
8,074000	0,66	-0,235350	
8,085000	0,66	-0,237000	
8,096000	0,66	-0,241460	
8,107000	0,66	-0,248840	
8,118000	0,66	-0,252190	
8,129000	0,66	-0,246890	
8,140000	0,66	-0,248810	
8,151000	0,66	-0,248500	
8,162000	0,66	-0,242260	
8,173000	0,66	-0,244700	
8,184000	0,66	-0,260250	
8,195000	0,66	-0,265640	
8,206000	0,66	-0,269430	
8,217000	0,66	-0,271640	
8,228000	0,66	-0,274020	
8,239000	0,66	-0,276140	
8,250000	0,66	-0,273210	
8,261000	0,66	-0,271730	
8,272000	0,66	-0,269460	
8,283000	0,66	-0,262980	
8,294000	0,66	-0,262770	
8,305000	0,66	-0,259860	
8,316000	0,66	-0,249970	
8,327000	0,66	-0,244500	
8,338000	0,66	-0,246920	
8,349000	0,66	-0,257670	
8,360000	0,66	-0,260020	
8,371000	0,66	-0,265520	
8,382000	0,66	-0,264930	
8,393000	0,66	-0,272350	
8,404000	0,66	-0,269980	
8,415000	0,66	-0,266420	
8,426000	0,66	-0,277120	
8,437000	0,66	-0,279280	
8,448000	0,66	-0,272870	
8,459000	0,66	-0,272730	
8,470000	0,66	-0,267630	
8,481000	0,66	-0,272370	
8,492000	0,66	-0,276450	
8,503000	0,66	-0,271180	
8,514000	0,66	-0,270090	
8,525000	0,66	-0,278490	
8,536000	0,66	-0,288720	
8,547000	0,66	-0,288330	
8,558000	0,66	-0,279550	
8,569000	0,66	-0,274540	
8,580000	0,66	-0,272780	
8,591000	0,66	-0,273670	
8,602000	0,66	-0,277560	
8,613000	0,66	-0,273900	
8,624000	0,66	-0,265610	
8,635000	0,66	-0,262490	
8,646000	0,66	-0,259200	
8,657000	0,66	-0,256510	
8,668000	0,66	-0,261680	
8,679000	0,66	-0,261860	
8,690000	0,66	-0,262420	
8,701000	0,66	-0,266770	
8,712000	0,66	-0,267090	
8,723000	0,66	-0,269760	
8,734000	0,66	-0,279910	
8,745000	0,66	-0,292800	
8,756000	0,66	-0,301550	
8,767000	0,66	-0,299260	
8,778000	0,66	-0,288510	
8,789000	0,66	-0,278790	
8,800000	0,66	-0,272970	
8,811000	0,66	-0,272570	
8,822000	0,66	-0,273710	
8,833000	0,66	-0,278840	
8,844000	0,66	-0,286370	
8,855000	0,66	-0,285680	
8,866000	0,66	-0,286770	
8,877000	0,66	-0,282510	
8,888000	0,66	-0,277620	
8,899000	0,66	-0,276400	
8,910000	0,66	-0,280800	
8,921000	0,66	-0,288350	
8,932000	0,66	-0,299220	
8,943000	0,66	-0,294760	
8,954000	0,66	-0,293340	
8,965000	0,66	-0,293390	
8,976000	0,66	-0,306500	
8,987000	0,66	-0,306870	
8,998000	0,66	-0,304520	
9,009000	0,66	-0,301540	
9,020000	0,66	-0,291170	
9,031000	0,66	-0,287600	
9,042000	0,66	-0,294540	
9,053000	0,66	-0,292390	
9,064000	0,66	-0,290310	
9,075000	0,66	-0,284770	
9,086000	0,66	-0,281000	
9,097000	0,66	-0,276920	
9,108000	0,66	-0,282890	
9,119000	0,66	-0,289630	
9,130000	0,66	-0,291520	
9,141000	0,66	-0,293960	
9,152000	0,66	-0,297560	
9,163000	0,66	-0,288120	
9,174000	0,66	-0,290480	
9,185000	0,66	-0,287510	
9,196000	0,66	-0,283380	
9,207000	0,66	-0,290360	
9,218000	0,66	-0,296650	
9,229000	0,66	-0,279810	
9,240000	0,66	-0,274680	
9,251000	0,66	-0,280030	
9,262000	0,66	-0,292570	
9,273000	0,66	-0,296810	
9,284000	0,66	-0,302930	
9,295000	0,66	-0,291400	
9,306000	0,66	-0,282920	
9,317000	0,66	-0,278800	
9,328000	0,66	-0,276390	
9,339000	0,66	-0,279690	
9,350000	0,66	-0,283180	
9,361000	0,66	-0,281840	
9,372000	0,66	-0,275240	
9,383000	0,66	-0,275550	
9,394000	0,66	-0,281960	
9,405000	0,66	-0,283620	
9,416000	0,66	-0,286540	
9,427000	0,66	-0,288220	
9,438000	0,66	-0,289580	
9,449000	0,66	-0,297310	
9,460000	0,66	-0,297120	
9,471000	0,66	-0,287630	
9,482000	0,66	-0,277510	
9,493000	0,66	-0,273070	
9,504000	0,66	-0,280750	
9,515000	0,66	-0,284830	
9,526000	0,66	-0,279660	
9,537000	0,66	-0,276560	
9,548000	0,66	-0,278140	
9,559000	0,66	-0,276320	
9,570000	0,66	-0,279520	
9,581000	0,66	-0,276340	
9,592000	0,66	-0,280730	
9,603000	0,66	-0,280950	
9,614000	0,66	-0,280930	
9,625000	0,66	-0,289150	
9,636000	0,66	-0,293530	
9,647000	0,66	-0,294420	
9,658000	0,66	-0,289950	
9,669000	0,66	-0,281360	
9,680000	0,66	-0,289760	
9,691000	0,66	-0,299320	
9,702000	0,66	-0,289900	
9,713000	0,66	-0,288660	
9,724000	0,66	-0,291870	
9,735000	0,66	-0,288830	
9,746000	0,66	-0,289340	
9,757000	0,66	-0,296810	
9,768000	0,66	-0,303090	
9,779000	0,66	-0,304970	
9,790000	0,66	-0,297310	
9,801000	0,66	-0,292930	
9,812000	0,66	-0,277580	
9,823000	0,66	-0,280720	
9,834000	0,66	-0,281240	
9,845000	0,66	-0,271930	
9,856000	0,66	-0,273430	
9,867000	0,66	-0,282140	
9,878000	0,66	-0,265410	
9,889000	0,66	-0,266620	
9,900000	0,66	-0,276240	
9,911000	0,66	-0,277170	
9,922000	0,66	-0,273290	
9,933000	0,66	-0,273380	
9,944000	0,66	-0,288310	
9,955000	0,66	-0,289410	
9,966000	0,66	-0,293500	
9,977000	0,66	-0,286650	
9,988000	0,66	-0,285010	
9,999000	0,66	-0,285730	
10,010000	0,66	-0,279890	
10,021000	0,66	-0,275090	
10,032000	0,66	-0,282170	
10,043000	0,66	-0,279950	
10,054000	0,66	-0,276790	
10,065000	0,66	-0,267040	
10,076000	0,66	-0,272170	
10,087000	0,66	-0,279120	
10,098000	0,66	-0,268510	
10,109000	0,66	-0,263540	
10,120000	0,66	-0,262910	
10,131000	0,66	-0,261070	
10,142000	0,66	-0,270830	
10,153000	0,66	-0,280150	
10,164000	0,66	-0,276230	
10,175000	0,66	-0,266960	
10,186000	0,66	-0,263510	
10,197000	0,66	-0,273330	
10,208000	0,66	-0,274570	
10,219000	0,66	-0,268600	
10,230000	0,66	-0,262600	
10,241000	0,66	-0,255280	
10,252000	0,66	-0,259640	
10,263000	0,66	-0,255750	
10,274000	0,66	-0,255240	
10,285000	0,66	-0,260930	
10,296000	0,66	-0,256930	
10,307000	0,66	-0,259650	
10,318000	0,66	-0,259330	
10,329000	0,66	-0,265290	
10,340000	0,66	-0,273030	
10,351000	0,66	-0,269930	
10,362000	0,66	-0,270600	
10,373000	0,66	-0,268540	
10,384000	0,66	-0,267040	
10,395000	0,66	-0,266300	
10,406000	0,66	-0,260880	
10,417000	0,66	-0,260650	
10,428000	0,66	-0,272190	
10,439000	0,66	-0,278400	
10,450000	0,66	-0,279350	
10,461000	0,66	-0,276720	
10,472000	0,66	-0,262250	
10,483000	0,66	-0,263940	
10,494000	0,66	-0,271510	
10,505000	0,66	-0,266710	
10,516000	0,66	-0,266650	
10,527000	0,66	-0,263990	
10,538000	0,66	-0,269500	
10,549000	0,66	-0,268530	
10,560000	0,66	-0,270950	
10,571000	0,66	-0,271030	
10,582000	0,66	-0,267540	
10,593000	0,66	-0,266780	
10,604000	0,66	-0,270790	
10,615000	0,66	-0,279520	
10,626000	0,66	-0,277110	
10,637000	0,66	-0,280110	
10,648000	0,66	-0,278000	
10,659000	0,66	-0,264310	
10,670000	0,66	-0,252740	
10,681000	0,66	-0,246500	
10,692000	0,66	-0,249230	
10,703000	0,66	-0,266350	
10,714000	0,66	-0,270450	
10,725000	0,66	-0,267140	
10,736000	0,66	-0,263750	
10,747000	0,66	-0,270000	
10,758000	0,66	-0,269880	
10,769000	0,66	-0,266040	
10,780000	0,66	-0,263340	
10,791000	0,66	-0,260850	
10,802000	0,66	-0,261030	
10,813000	0,66	-0,260040	
10,824000	0,66	-0,266500	
10,835000	0,66	-0,267860	
10,846000	0,66	-0,254840	
10,857000	0,66	-0,253490	
10,868000	0,66	-0,263970	
10,879000	0,66	-0,270110	
10,890000	0,66	-0,270730	
10,901000	0,66	-0,272290	
10,912000	0,66	-0,273500	
10,923000	0,66	-0,266690	
10,934000	0,66	-0,267790	
10,945000	0,66	-0,271560	
10,956000	0,66	-0,267100	
10,967000	0,66	-0,269230	
10,978000	0,66	-0,270210	
10,989000	0,66	-0,263890	
11,000000	0,66	-0,258310	
11,011000	0,66	-0,256660	
11,022000	0,66	-0,265250	
11,033000	0,66	-0,268280	
11,044000	0,66	-0,256960	
11,055000	0,66	-0,261640	
11,066000	0,66	-0,261800	
11,077000	0,66	-0,265460	
11,088000	0,66	-0,260780	
11,099000	0,66	-0,246810	
11,110000	0,66	-0,253410	
11,121000	0,66	-0,265050	
11,132000	0,66	-0,274590	
11,143000	0,66	-0,272930	
11,154000	0,66	-0,265730	
11,165000	0,66	-0,257820	
11,176000	0,66	-0,257790	
11,187000	0,66	-0,255540	
11,198000	0,66	-0,243870	
11,209000	0,66	-0,255840	
11,220000	0,66	-0,267880	
11,231000	0,66	-0,265760	
11,242000	0,66	-0,263690	
11,253000	0,66	-0,261640	
11,264000	0,66	-0,260440	
11,275000	0,66	-0,256150	
11,286000	0,66	-0,255050	
11,297000	0,66	-0,253070	
11,308000	0,66	-0,258020	
11,319000	0,66	-0,260810	
11,330000	0,66	-0,256750	
11,341000	0,66	-0,267250	
11,352000	0,66	-0,269800	
11,363000	0,66	-0,265930	
11,374000	0,66	-0,258880	
11,385000	0,66	-0,260380	
11,396000	0,66	-0,268230	
11,407000	0,66	-0,272790	
11,418000	0,66	-0,264470	
11,429000	0,66	-0,259220	
11,440000	0,66	-0,262790	
11,451000	0,66	-0,264860	
11,462000	0,66	-0,266390	
11,473000	0,66	-0,260660	
11,484000	0,66	-0,255830	
11,495000	0,66	-0,258450	
11,506000	0,66	-0,265960	
11,517000	0,66	-0,270230	
11,528000	0,66	-0,270500	
11,539000	0,66	-0,273670	
11,550000	0,66	-0,271040	
11,561000	0,66	-0,267870	
11,572000	0,66	-0,268180	
11,583000	0,66	-0,265460	
11,594000	0,66	-0,271500	
11,605000	0,66	-0,273870	
11,616000	0,66	-0,269730	
11,627000	0,66	-0,272550	
11,638000	0,66	-0,266350	
11,649000	0,66	-0,266290	
11,660000	0,66	-0,273280	
11,671000	0,66	-0,275300	
11,682000	0,66	-0,274890	
11,693000	0,66	-0,274370	
11,704000	0,66	-0,259560	
11,715000	0,66	-0,260410	
11,726000	0,66	-0,267780	
11,737000	0,66	-0,258960	
11,748000	0,66	-0,268110	
11,759000	0,66	-0,274110	
11,770000	0,66	-0,277490	
11,781000	0,66	-0,274580	
11,792000	0,66	-0,277900	
11,803000	0,66	-0,281090	
11,814000	0,66	-0,275210	
11,825000	0,66	-0,264390	
11,836000	0,66	-0,267600	
11,847000	0,66	-0,276840	
11,858000	0,66	-0,282640	
11,869000	0,66	-0,270110	
11,880000	0,66	-0,279030	
11,891000	0,66	-0,279720	
11,902000	0,66	-0,277970	
11,913000	0,66	-0,277310	
11,924000	0,66	-0,275040	
11,935000	0,66	-0,281090	
11,946000	0,66	-0,266510	
11,957000	0,66	-0,263410	
11,968000	0,66	-0,268900	
11,979000	0,66	-0,263340	
11,990000	0,66	-0,264100	
12,001000	0,66	-0,271930	
12,012000	0,66	-0,278740	
12,023000	0,66	-0,282930	
12,034000	0,66	-0,275350	
12,045000	0,66	-0,275580	
12,056000	0,66	-0,273150	
12,067000	0,66	-0,276630	
12,078000	0,66	-0,270980	
12,089000	0,66	-0,257740	
12,100000	0,66	-0,262120	
12,111000	0,66	-0,271370	
12,122000	0,66	-0,274010	
12,133000	0,66	-0,277180	
12,144000	0,66	-0,279530	
12,155000	0,66	-0,281290	
12,166000	0,66	-0,275110	
12,177000	0,66	-0,268310	
12,188000	0,66	-0,267140	
12,199000	0,66	-0,263240	
12,210000	0,66	-0,257960	
12,221000	0,66	-0,266590	
12,232000	0,66	-0,274370	
12,243000	0,66	-0,264070	
12,254000	0,66	-0,255850	
12,265000	0,66	-0,258920	
12,276000	0,66	-0,259610	
12,287000	0,66	-0,258080	
12,298000	0,66	-0,265710	
12,309000	0,66	-0,269570	
12,320000	0,66	-0,276120	
12,331000	0,66	-0,277620	
12,342000	0,66	-0,270000	
12,353000	0,66	-0,271490	
12,364000	0,66	-0,269830	
12,375000	0,66	-0,253740	
12,386000	0,66	-0,255210	
12,397000	0,66	-0,271550	
12,408000	0,66	-0,274070	
12,419000	0,66	-0,280400	
12,430000	0,66	-0,279380	
12,441000	0,66	-0,277760	
12,452000	0,66	-0,270680	
12,463000	0,66	-0,270930	
12,474000	0,66	-0,266970	
12,485000	0,66	-0,274280	
12,496000	0,66	-0,275780	
12,507000	0,66	-0,268150	
12,518000	0,66	-0,264750	
12,529000	0,66	-0,262170	
12,540000	0,66	-0,267510	
12,551000	0,66	-0,261550	
12,562000	0,66	-0,263220	
12,573000	0,66	-0,257100	
12,584000	0,66	-0,252590	
12,595000	0,66	-0,261110	
12,606000	0,66	-0,264660	
12,617000	0,66	-0,263970	
12,628000	0,66	-0,267540	
12,639000	0,66	-0,283530	
12,650000	0,66	-0,284250	
12,661000	0,66	-0,275600	
12,672000	0,66	-0,274190	
12,683000	0,66	-0,265480	
12,694000	0,66	-0,259610	
12,705000	0,66	-0,258330	
12,716000	0,66	-0,252200	
12,727000	0,66	-0,255280	
12,738000	0,66	-0,262290	
12,749000	0,66	-0,258790	
12,760000	0,66	-0,262800	
12,771000	0,66	-0,261040	
12,782000	0,66	-0,268620	
12,793000	0,66	-0,261440	
12,804000	0,66	-0,256440	
12,815000	0,66	-0,268540	
12,826000	0,66	-0,273760	
12,837000	0,66	-0,274170	
12,848000	0,66	-0,281310	
12,859000	0,66	-0,281710	
12,870000	0,66	-0,274540	
12,881000	0,66	-0,275220	
12,892000	0,66	-0,280610	
12,903000	0,66	-0,281490	
12,914000	0,66	-0,287310	
12,925000	0,66	-0,290660	
12,936000	0,66	-0,284790	
12,947000	0,66	-0,281720	
12,958000	0,66	-0,278710	
12,969000	0,66	-0,276310	
12,980000	0,66	-0,277170	
12,991000	0,66	-0,270560	
13,002000	0,66	-0,264110	
13,013000	0,66	-0,270640	
13,024000	0,66	-0,281560	
13,035000	0,66	-0,283010	
13,046000	0,66	-0,274720	
13,057000	0,66	-0,278030	
13,068000	0,66	-0,280290	
13,079000	0,66	-0,273170	
13,090000	0,66	-0,260350	
13,101000	0,66	-0,260710	
13,112000	0,66	-0,263510	
13,123000	0,66	-0,272250	
13,134000	0,66	-0,271880	
13,145000	0,66	-0,276020	
13,156000	0,66	-0,273680	
13,167000	0,66	-0,269160	
13,178000	0,66	-0,264720	
13,189000	0,66	-0,258830	
13,200000	0,66	-0,262200	
13,211000	0,66	-0,267440	
13,222000	0,66	-0,266040	
13,233000	0,66	-0,273120	
13,244000	0,66	-0,282150	
13,255000	0,66	-0,278760	
13,266000	0,66	-0,268340	
13,277000	0,66	-0,271210	
13,288000	0,66	-0,271380	
13,299000	0,66	-0,268880	
13,310000	0,66	-0,284280	
13,321000	0,66	-0,279630	
13,332000	0,66	-0,274220	
13,343000	0,66	-0,269670	
13,354000	0,66	-0,273120	
13,365000	0,66	-0,284350	
13,376000	0,66	-0,288040	
13,387000	0,66	-0,282000	
13,398000	0,66	-0,267490	
13,409000	0,66	-0,264290	
13,420000	0,66	-0,263140	
13,431000	0,66	-0,265070	
13,442000	0,66	-0,266680	
13,453000	0,66	-0,272750	
13,464000	0,66	-0,279980	
13,475000	0,66	-0,268040	
13,486000	0,66	-0,254920	
13,497000	0,66	-0,260070	
13,508000	0,66	-0,264240	
13,519000	0,66	-0,267270	
13,530000	0,66	-0,267400	
13,541000	0,66	-0,270210	
13,552000	0,66	-0,276730	
13,563000	0,66	-0,274600	
13,574000	0,66	-0,277490	
13,585000	0,66	-0,285570	
13,596000	0,66	-0,280700	
13,607000	0,66	-0,281940	
13,618000	0,66	-0,290410	
13,629000	0,66	-0,284570	
13,640000	0,66	-0,268970	
13,651000	0,66	-0,263220	
13,662000	0,66	-0,264080	
13,673000	0,66	-0,259340	
13,684000	0,66	-0,253020	
13,695000	0,66	-0,246310	
13,706000	0,66	-0,256540	
13,717000	0,66	-0,259400	
13,728000	0,66	-0,250890	
13,739000	0,66	-0,248690	
13,750000	0,66	-0,251520	
13,761000	0,66	-0,262680	
13,772000	0,66	-0,255130	
13,783000	0,66	-0,249570	
13,794000	0,66	-0,256720	
13,805000	0,66	-0,255060	
13,816000	0,66	-0,260340	
13,827000	0,66	-0,260500	
13,838000	0,66	-0,252500	
13,849000	0,66	-0,255900	
13,860000	0,66	-0,262750	
13,871000	0,66	-0,264560	
13,882000	0,66	-0,266200	
13,893000	0,66	-0,260050	
13,904000	0,66	-0,250070	
13,915000	0,66	-0,258230	
13,926000	0,66	-0,288840	
13,937000	0,66	-0,280210	
13,948000	0,66	-0,269480	
13,959000	0,66	-0,256950	
13,970000	0,66	-0,262220	
13,981000	0,66	-0,265200	
13,992000	0,66	-0,267870	
14,003000	0,66	-0,276130	
14,014000	0,66	-0,271360	
14,025000	0,66	-0,275050	
14,036000	0,66	-0,269040	
14,047000	0,66	-0,273820	
14,058000	0,66	-0,273630	
14,069000	0,66	-0,260570	
14,080000	0,66	-0,254640	
14,091000	0,66	-0,267620	
14,102000	0,66	-0,266030	
14,113000	0,66	-0,263760	
14,124000	0,66	-0,262450	
14,135000	0,66	-0,280800	
14,146000	0,66	-0,280370	
14,157000	0,66	-0,276720	
14,168000	0,66	-0,273710	
14,179000	0,66	-0,270410	
14,190000	0,66	-0,266320	
14,201000	0,66	-0,259450	
14,212000	0,66	-0,259170	
14,223000	0,66	-0,263540	
14,234000	0,66	-0,262310	
14,245000	0,66	-0,258160	
14,256000	0,66	-0,249670	
14,267000	0,66	-0,247760	
14,278000	0,66	-0,248480	
14,289000	0,66	-0,253910	
14,300000	0,66	-0,258790	
14,311000	0,66	-0,265210	
14,322000	0,66	-0,274900	
14,333000	0,66	-0,274500	
14,344000	0,66	-0,271100	
14,355000	0,66	-0,273180	
14,366000	0,66	-0,274200	
14,377000	0,66	-0,271770	
14,388000	0,66	-0,271660	
14,399000	0,66	-0,273370	
14,410000	0,66	-0,277850	
14,421000	0,66	-0,276930	
14,432000	0,66	-0,269600	
14,443000	0,66	-0,265700	
14,454000	0,66	-0,267850	
14,465000	0,66	-0,270750	
14,476000	0,66	-0,268490	
14,487000	0,66	-0,265390	
14,498000	0,66	-0,262800	
14,509000	0,66	-0,268720	
14,520000	0,66	-0,270370	
14,531000	0,66	-0,267660	
14,542000	0,66	-0,267450	
14,553000	0,66	-0,269050	
14,564000	0,66	-0,267100	
14,575000	0,66	-0,267440	
14,586000	0,66	-0,276160	
14,597000	0,66	-0,275920	
14,608000	0,66	-0,270450	
14,619000	0,66	-0,274090	
14,630000	0,66	-0,266250	
14,641000	0,66	-0,261980	
14,652000	0,66	-0,264480	
14,663000	0,66	-0,276730	
14,674000	0,66	-0,281660	
14,685000	0,66	-0,273410	
14,696000	0,66	-0,277750	
14,707000	0,66	-0,280780	
14,718000	0,66	-0,279430	
14,729000	0,66	-0,278590	
14,740000	0,66	-0,276750	
14,751000	0,66	-0,269490	
14,762000	0,66	-0,279160	
14,773000	0,66	-0,278740	
14,784000	0,66	-0,266340	
14,795000	0,66	-0,271540	
14,806000	0,66	-0,289430	
14,817000	0,66	-0,294550	
14,828000	0,66	-0,291200	
14,839000	0,66	-0,287970	
14,850000	0,66	-0,287500	
14,861000	0,66	-0,285540	
14,872000	0,66	-0,277240	
14,883000	0,66	-0,274450	
14,894000	0,66	-0,284140	
14,905000	0,66	-0,287840	
14,916000	0,66	-0,281960	
14,927000	0,66	-0,282050	
14,938000	0,66	-0,287810	
14,949000	0,66	-0,288480	
14,960000	0,66	-0,277390	
14,971000	0,66	-0,263500	
14,982000	0,66	-0,263880	
14,993000	0,66	-0,266970	
15,004000	0,66	-0,265050	
15,015000	0,66	-0,263600	
15,026000	0,66	-0,258730	
15,037000	0,66	-0,260340	
15,048000	0,66	-0,266800	
15,059000	0,66	-0,263940	
15,070000	0,66	-0,261110	
15,081000	0,66	-0,262910	
15,092000	0,66	-0,268000	
15,103000	0,66	-0,271710	
15,114000	0,66	-0,265210	
15,125000	0,66	-0,268590	
15,136000	0,66	-0,282500	
15,147000	0,66	-0,282970	
15,158000	0,66	-0,285790	
15,169000	0,66	-0,281800	
15,180000	0,66	-0,281330	
15,191000	0,66	-0,273770	
15,202000	0,66	-0,274520	
15,213000	0,66	-0,274720	
15,224000	0,66	-0,273620	
15,235000	0,66	-0,269460	
15,246000	0,66	-0,270170	
15,257000	0,66	-0,271000	
15,268000	0,66	-0,270450	
15,279000	0,66	-0,280830	
15,290000	0,66	-0,282760	
15,301000	0,66	-0,269570	
15,312000	0,66	-0,267350	
15,323000	0,66	-0,265460	
15,334000	0,66	-0,273550	
15,345000	0,66	-0,281250	
15,356000	0,66	-0,275550	
15,367000	0,66	-0,271490	
15,378000	0,66	-0,277550	
15,389000	0,66	-0,280610	
15,400000	0,66	-0,289710	
15,411000	0,66	-0,288800	
15,422000	0,66	-0,294440	
15,433000	0,66	-0,297100	
15,444000	0,66	-0,298920	
15,455000	0,66	-0,288500	
15,466000	0,66	-0,275880	
15,477000	0,66	-0,281330	
15,488000	0,66	-0,277990	
15,499000	0,66	-0,274550	
15,510000	0,66	-0,278200	
15,521000	0,66	-0,280110	
15,532000	0,66	-0,277570	
15,543000	0,66	-0,277460	
15,554000	0,66	-0,281230	
15,565000	0,66	-0,284840	
15,576000	0,66	-0,279510	
15,587000	0,66	-0,278560	
15,598000	0,66	-0,276530	
15,609000	0,66	-0,270900	
15,620000	0,66	-0,282330	
15,631000	0,66	-0,288070	
15,642000	0,66	-0,292230	
15,653000	0,66	-0,294430	
15,664000	0,66	-0,296680	
15,675000	0,66	-0,298080	
15,686000	0,66	-0,287940	
15,697000	0,66	-0,278200	
15,708000	0,66	-0,272860	
15,719000	0,66	-0,276190	
15,730000	0,66	-0,276060	
15,741000	0,66	-0,263930	
15,752000	0,66	-0,263430	
15,763000	0,66	-0,270330	
15,774000	0,66	-0,274240	
15,785000	0,66	-0,280120	
15,796000	0,66	-0,285160	
15,807000	0,66	-0,283560	
15,818000	0,66	-0,287660	
15,829000	0,66	-0,286520	
15,840000	0,66	-0,272880	
15,851000	0,66	-0,269110	
15,862000	0,66	-0,274280	
15,873000	0,66	-0,276750	
15,884000	0,66	-0,276150	
15,895000	0,66	-0,266550	
15,906000	0,66	-0,266580	
15,917000	0,66	-0,270300	
15,928000	0,66	-0,275440	
15,939000	0,66	-0,273970	
15,950000	0,66	-0,277060	
15,961000	0,66	-0,277140	
15,972000	0,66	-0,284210	
15,983000	0,66	-0,288700	
15,994000	0,66	-0,287550	
16,005000	0,66	-0,284820	
16,016000	0,66	-0,285230	
16,027000	0,66	-0,267170	
16,038000	0,66	-0,261590	
16,049000	0,66	-0,275180	
16,060000	0,66	-0,270590	
16,071000	0,66	-0,267010	
16,082000	0,66	-0,262120	
16,093000	0,66	-0,268350	
16,104000	0,66	-0,269240	
16,115000	0,66	-0,270500	
16,126000	0,66	-0,266740	
16,137000	0,66	-0,262620	
16,148000	0,66	-0,263330	
16,159000	0,66	-0,257100	
16,170000	0,66	-0,258030	
16,181000	0,66	-0,258060	
16,192000	0,66	-0,250240	
16,203000	0,66	-0,256060	
16,214000	0,66	-0,266300	
16,225000	0,66	-0,278980	
16,236000	0,66	-0,281370	
16,247000	0,66	-0,277900	
16,258000	0,66	-0,273170	
16,269000	0,66	-0,268040	
16,280000	0,66	-0,258160	
16,291000	0,66	-0,255900	
16,302000	0,66	-0,270640	
16,313000	0,66	-0,275640	
16,324000	0,66	-0,279730	
16,335000	0,66	-0,282940	
16,346000	0,66	-0,284540	
16,357000	0,66	-0,286960	
16,368000	0,66	-0,283260	
16,379000	0,66	-0,275830	
16,390000	0,66	-0,274650	
16,401000	0,66	-0,276450	
16,412000	0,66	-0,272020	
16,423000	0,66	-0,272040	
16,434000	0,66	-0,274830	
16,445000	0,66	-0,278510	
16,456000	0,66	-0,286430	
16,467000	0,66	-0,281680	
16,478000	0,66	-0,273260	
16,489000	0,66	-0,274000	
16,500000	0,66	-0,277930	
16,511000	0,66	-0,276760	
16,522000	0,66	-0,270370	
16,533000	0,66	-0,276540	
16,544000	0,66	-0,280130	
16,555000	0,66	-0,278600	
16,566000	0,66	-0,277420	
16,577000	0,66	-0,278580	
16,588000	0,66	-0,281370	
16,599000	0,66	-0,283630	
16,610000	0,66	-0,276680	
16,621000	0,66	-0,272360	
16,632000	0,66	-0,278910	
16,643000	0,66	-0,282860	
16,654000	0,66	-0,272810	
16,665000	0,66	-0,271590	
16,676000	0,66	-0,275970	
16,687000	0,66	-0,277830	
16,698000	0,66	-0,284910	
16,709000	0,66	-0,294640	
16,720000	0,66	-0,293230	
16,731000	0,66	-0,291350	
16,742000	0,66	-0,290040	
16,753000	0,66	-0,293820	
16,764000	0,66	-0,291980	
16,775000	0,66	-0,280430	
16,786000	0,66	-0,294600	
16,797000	0,66	-0,301710	
16,808000	0,66	-0,297380	
16,819000	0,66	-0,298010	
16,830000	0,66	-0,299710	
16,841000	0,66	-0,304280	
16,852000	0,66	-0,300640	
16,863000	0,66	-0,299290	
16,874000	0,66	-0,298020	
16,885000	0,66	-0,295050	
16,896000	0,66	-0,301450	
16,907000	0,66	-0,297350	
16,918000	0,66	-0,297880	
16,929000	0,66	-0,299880	
16,940000	0,66	-0,297790	
16,951000	0,66	-0,287890	
16,962000	0,66	-0,282690	
16,973000	0,66	-0,291790	
16,984000	0,66	-0,297410	
16,995000	0,66	-0,289170	
17,006000	0,66	-0,294510	
17,017000	0,66	-0,308650	
17,028000	0,66	-0,310180	
17,039000	0,66	-0,303610	
17,050000	0,66	-0,296900	
17,061000	0,66	-0,299570	
17,072000	0,66	-0,302570	
17,083000	0,66	-0,305020	
17,094000	0,66	-0,299320	
17,105000	0,66	-0,297490	
17,116000	0,66	-0,301740	
17,127000	0,66	-0,305540	
17,138000	0,66	-0,308250	
17,149000	0,66	-0,306730	
17,160000	0,66	-0,306620	
17,171000	0,66	-0,296400	
17,182000	0,66	-0,290440	
17,193000	0,66	-0,290420	
17,204000	0,66	-0,293020	
17,215000	0,66	-0,293140	
17,226000	0,66	-0,301780	
17,237000	0,66	-0,306080	
17,248000	0,66	-0,299900	
17,259000	0,66	-0,302180	
17,270000	0,66	-0,306850	
17,281000	0,66	-0,305290	
17,292000	0,66	-0,297510	
17,303000	0,66	-0,284420	
17,314000	0,66	-0,283780	
17,325000	0,66	-0,290400	
17,336000	0,66	-0,283070	
17,347000	0,66	-0,286330	
17,358000	0,66	-0,299570	
17,369000	0,66	-0,307930	
17,380000	0,66	-0,295350	
17,391000	0,66	-0,307880	
17,402000	0,66	-0,304290	
17,413000	0,66	-0,297140	
17,424000	0,66	-0,299380	
17,435000	0,66	-0,294300	
17,446000	0,66	-0,294690	
17,457000	0,66	-0,291340	
17,468000	0,66	-0,287150	
17,479000	0,66	-0,284580	
17,490000	0,66	-0,291460	
17,501000	0,66	-0,281930	
17,512000	0,66	-0,283020	
17,523000	0,66	-0,289030	
17,534000	0,66	-0,295890	
17,545000	0,66	-0,293390	
17,556000	0,66	-0,289920	
17,567000	0,66	-0,292760	
17,578000	0,66	-0,301020	
17,589000	0,66	-0,303100	
17,600000	0,66	-0,294010	
17,611000	0,66	-0,289510	
17,622000	0,66	-0,284020	
17,633000	0,66	-0,285180	
17,644000	0,66	-0,296430	
17,655000	0,66	-0,300480	
17,666000	0,66	-0,299740	
17,677000	0,66	-0,290050	
17,688000	0,66	-0,286360	
17,699000	0,66	-0,292610	
17,710000	0,66	-0,293570	
17,721000	0,66	-0,285920	
17,732000	0,66	-0,267230	
17,743000	0,66	-0,264180	
17,754000	0,66	-0,268620	
17,765000	0,66	-0,274060	
17,776000	0,66	-0,279600	
17,787000	0,66	-0,280750	
17,798000	0,66	-0,283390	
17,809000	0,66	-0,285950	
17,820000	0,66	-0,281780	
17,831000	0,66	-0,278280	
17,842000	0,66	-0,284480	
17,853000	0,66	-0,294190	
17,864000	0,66	-0,298090	
17,875000	0,66	-0,291870	
17,886000	0,66	-0,292030	
17,897000	0,66	-0,294210	
17,908000	0,66	-0,291910	
17,919000	0,66	-0,285930	
17,930000	0,66	-0,281890	
17,941000	0,66	-0,275170	
17,952000	0,66	-0,264290	
17,963000	0,66	-0,269690	
17,974000	0,66	-0,281830	
17,985000	0,66	-0,287170	
17,996000	0,66	-0,278060	
18,007000	0,66	-0,282110	
18,018000	0,66	-0,282410	
18,029000	0,66	-0,277090	
18,040000	0,66	-0,288270	
18,051000	0,66	-0,285480	
18,062000	0,66	-0,291230	
18,073000	0,66	-0,290280	
18,084000	0,66	-0,284400	
18,095000	0,66	-0,281060	
18,106000	0,66	-0,288410	
18,117000	0,66	-0,284580	
18,128000	0,66	-0,284990	
18,139000	0,66	-0,281250	
18,150000	0,66	-0,282370	
18,161000	0,66	-0,285060	
18,172000	0,66	-0,284260	
18,183000	0,66	-0,282510	
18,194000	0,66	-0,295530	
18,205000	0,66	-0,301400	
18,216000	0,66	-0,302510	
18,227000	0,66	-0,313290	
18,238000	0,66	-0,317870	
18,249000	0,66	-0,304250	
18,260000	0,66	-0,298700	
18,271000	0,66	-0,292300	
18,282000	0,66	-0,286860	
18,293000	0,66	-0,283440	
18,304000	0,66	-0,282340	
18,315000	0,66	-0,282460	
18,326000	0,66	-0,285070	
18,337000	0,66	-0,289590	
18,348000	0,66	-0,296470	
18,359000	0,66	-0,293820	
18,370000	0,66	-0,292660	
18,381000	0,66	-0,287490	
18,392000	0,66	-0,287840	
18,403000	0,66	-0,287250	
18,414000	0,66	-0,292920	
18,425000	0,66	-0,287330	
18,436000	0,66	-0,283820	
18,447000	0,66	-0,286760	
18,458000	0,66	-0,290340	
18,469000	0,66	-0,289430	
18,480000	0,66	-0,276480	
18,491000	0,66	-0,267930	
18,502000	0,66	-0,276970	
18,513000	0,66	-0,285080	
18,524000	0,66	-0,281290	
18,535000	0,66	-0,279840	
18,546000	0,66	-0,287570	
18,557000	0,66	-0,293060	
18,568000	0,66	-0,286280	
18,579000	0,66	-0,281500	
18,590000	0,66	-0,287920	
18,601000	0,66	-0,289200	
18,612000	0,66	-0,289230	
18,623000	0,66	-0,295730	
18,634000	0,66	-0,292330	
18,645000	0,66	-0,288260	
18,656000	0,66	-0,291290	
18,667000	0,66	-0,291500	
18,678000	0,66	-0,288050	
18,689000	0,66	-0,293390	
18,700000	0,66	-0,299110	
18,711000	0,66	-0,293390	
18,722000	0,66	-0,289840	
18,733000	0,66	-0,286390	
18,744000	0,66	-0,292500	
18,755000	0,66	-0,292970	
18,766000	0,66	-0,302100	
18,777000	0,66	-0,307440	
18,788000	0,66	-0,303710	
18,799000	0,66	-0,295700	
18,810000	0,66	-0,302270	
18,821000	0,66	-0,296010	
18,832000	0,66	-0,297310	
18,843000	0,66	-0,301850	
18,854000	0,66	-0,313640	
18,865000	0,66	-0,317260	
18,876000	0,66	-0,299420	
18,887000	0,66	-0,303370	
18,898000	0,66	-0,304310	
18,909000	0,66	-0,308910	
18,920000	0,66	-0,309110	
18,931000	0,66	-0,303430	
18,942000	0,66	-0,303550	
18,953000	0,66	-0,304440	
18,964000	0,66	-0,302590	
18,975000	0,66	-0,311060	
18,986000	0,66	-0,309680	
18,997000	0,66	-0,298390	
19,008000	0,66	-0,291100	
19,019000	0,66	-0,297910	
19,030000	0,66	-0,303680	
19,041000	0,66	-0,312740	
19,052000	0,66	-0,308660	
19,063000	0,66	-0,303820	
19,074000	0,66	-0,308920	
19,085000	0,66	-0,312950	
19,096000	0,66	-0,319970	
19,107000	0,66	-0,318240	
19,118000	0,66	-0,307010	
19,129000	0,66	-0,301840	
19,140000	0,66	-0,304810	
19,151000	0,66	-0,312280	
19,162000	0,66	-0,317540	
19,173000	0,66	-0,309290	
19,184000	0,66	-0,298400	
19,195000	0,66	-0,297250	
19,206000	0,66	-0,301020	
19,217000	0,66	-0,303410	
19,228000	0,66	-0,300810	
19,239000	0,66	-0,294330	
19,250000	0,66	-0,286300	
19,261000	0,66	-0,285310	
19,272000	0,66	-0,295140	
19,283000	0,66	-0,306870	
19,294000	0,66	-0,306170	
19,305000	0,66	-0,302900	
19,316000	0,66	-0,307240	
19,327000	0,66	-0,304480	
19,338000	0,66	-0,311170	
19,349000	0,66	-0,307690	
19,360000	0,66	-0,298560	
19,371000	0,66	-0,297910	
19,382000	0,66	-0,296490	
19,393000	0,66	-0,295910	
19,404000	0,66	-0,313840	
19,415000	0,66	-0,307290	
19,426000	0,66	-0,304640	
19,437000	0,66	-0,304940	
19,448000	0,66	-0,294920	
19,459000	0,66	-0,295880	
19,470000	0,66	-0,299500	
19,481000	0,66	-0,307180	
19,492000	0,66	-0,310370	
19,503000	0,66	-0,308410	
19,514000	0,66	-0,316180	
19,525000	0,66	-0,311250	
19,536000	0,66	-0,317010	
19,547000	0,66	-0,321380	
19,558000	0,66	-0,327010	
19,569000	0,66	-0,319190	
19,580000	0,66	-0,315700	
19,591000	0,66	-0,320090	
19,602000	0,66	-0,317300	
19,613000	0,66	-0,318480	
19,624000	0,66	-0,311600	
19,635000	0,66	-0,306460	
19,646000	0,66	-0,306910	
19,657000	0,66	-0,317290	
19,668000	0,66	-0,317530	
19,679000	0,66	-0,312630	
19,690000	0,66	-0,304120	
19,701000	0,66	-0,310370	
19,712000	0,66	-0,317340	
19,723000	0,66	-0,324680	
19,734000	0,66	-0,329310	
19,745000	0,66	-0,324770	
19,756000	0,66	-0,322860	
19,767000	0,66	-0,315870	
19,778000	0,66	-0,301920	
19,789000	0,66	-0,301820	
19,800000	0,66	-0,307990	
19,811000	0,66	-0,308470	
19,822000	0,66	-0,308360	
19,833000	0,66	-0,303180	
19,844000	0,66	-0,292040	
19,855000	0,66	-0,296880	
19,866000	0,66	-0,300260	
19,877000	0,66	-0,298270	
19,888000	0,66	-0,298550	
19,899000	0,66	-0,299340	
19,910000	0,66	-0,307000	
19,921000	0,66	-0,310500	
19,932000	0,66	-0,306750	
19,943000	0,66	-0,310950	
19,954000	0,66	-0,319140	
19,965000	0,66	-0,316840	
19,976000	0,66	-0,318000	
19,987000	0,66	-0,325680	
19,998000	0,66	-0,328750	
20,009000	0,66	-0,321360	
20,020000	0,66	-0,315850	
20,031000	0,66	-0,315090	
20,042000	0,66	-0,311490	
20,053000	0,66	-0,305420	
20,064000	0,66	-0,314160	
20,075000	0,66	-0,311660	
20,086000	0,66	-0,308030	
20,097000	0,66	-0,315940	
20,108000	0,66	-0,313280	
20,119000	0,66	-0,298750	
20,130000	0,66	-0,306820	
20,141000	0,66	-0,299870	
20,152000	0,66	-0,300760	
20,163000	0,66	-0,297650	
20,174000	0,66	-0,306360	
20,185000	0,66	-0,307380	
20,196000	0,66	-0,305250	
20,207000	0,66	-0,315320	
20,218000	0,66	-0,321680	
20,229000	0,66	-0,326710	
20,240000	0,66	-0,330810	
20,251000	0,66	-0,320680	
20,262000	0,66	-0,307530	
20,273000	0,66	-0,308770	
20,284000	0,66	-0,316940	
20,295000	0,66	-0,315980	
20,306000	0,66	-0,307140	
20,317000	0,66	-0,305910	
20,328000	0,66	-0,306340	
20,339000	0,66	-0,312080	
20,350000	0,66	-0,310460	
20,361000	0,66	-0,312960	
20,372000	0,66	-0,310880	
20,383000	0,66	-0,306780	
20,394000	0,66	-0,308610	
20,405000	0,66	-0,310410	
20,416000	0,66	-0,314090	
20,427000	0,66	-0,318660	
20,438000	0,66	-0,307430	
20,449000	0,66	-0,308190	
20,460000	0,66	-0,314820	
20,471000	0,66	-0,310520	
20,482000	0,66	-0,310640	
20,493000	0,66	-0,308600	
20,504000	0,66	-0,314130	
20,515000	0,66	-0,320500	
20,526000	0,66	-0,324050	
20,537000	0,66	-0,328600	
20,548000	0,66	-0,328150	
20,559000	0,66	-0,320850	
20,570000	0,66	-0,314820	
20,581000	0,66	-0,316710	
20,592000	0,66	-0,315070	
20,603000	0,66	-0,312830	
20,614000	0,66	-0,313070	
20,625000	0,66	-0,310150	
20,636000	0,66	-0,313430	
20,647000	0,66	-0,316240	
20,658000	0,66	-0,315490	
20,669000	0,66	-0,318440	
20,680000	0,66	-0,322040	
20,691000	0,66	-0,322270	
20,702000	0,66	-0,323160	
20,713000	0,66	-0,323440	
20,724000	0,66	-0,329020	
20,735000	0,66	-0,329790	
20,746000	0,66	-0,322490	
20,757000	0,66	-0,317810	
20,768000	0,66	-0,312990	
20,779000	0,66	-0,308420	
20,790000	0,66	-0,303440	
20,801000	0,66	-0,292170	
20,812000	0,66	-0,287920	
20,823000	0,66	-0,288850	
20,834000	0,66	-0,302570	
20,845000	0,66	-0,310060	
20,856000	0,66	-0,314030	
20,867000	0,66	-0,305400	
20,878000	0,66	-0,299800	
20,889000	0,66	-0,292180	
20,900000	0,66	-0,290360	
20,911000	0,66	-0,302670	
20,922000	0,66	-0,312980	
20,933000	0,66	-0,317180	
20,944000	0,66	-0,324970	
20,955000	0,66	-0,325320	
20,966000	0,66	-0,326710	
20,977000	0,66	-0,326580	
20,988000	0,66	-0,326140	
20,999000	0,66	-0,332190	
21,010000	0,66	-0,330980	
21,021000	0,66	-0,320840	
21,032000	0,66	-0,311990	
21,043000	0,66	-0,312490	
21,054000	0,66	-0,313010	
21,065000	0,66	-0,303520	
21,076000	0,66	-0,304830	
21,087000	0,66	-0,302500	
21,098000	0,66	-0,318040	
21,109000	0,66	-0,332410	
21,120000	0,66	-0,338300	
21,131000	0,66	-0,345620	
21,142000	0,66	-0,336350	
21,153000	0,66	-0,321830	
21,164000	0,66	-0,311610	
21,175000	0,66	-0,313670	
21,186000	0,66	-0,314060	
21,197000	0,66	-0,321040	
21,208000	0,66	-0,331110	
21,219000	0,66	-0,328900	
21,230000	0,66	-0,322320	
21,241000	0,66	-0,320240	
21,252000	0,66	-0,323090	
21,263000	0,66	-0,322620	
21,274000	0,66	-0,317890	
21,285000	0,66	-0,316140	
21,296000	0,66	-0,314970	
21,307000	0,66	-0,316590	
21,318000	0,66	-0,315920	
21,329000	0,66	-0,322970	
21,340000	0,66	-0,333350	
21,351000	0,66	-0,322270	
21,362000	0,66	-0,324950	
21,373000	0,66	-0,323040	
21,384000	0,66	-0,318570	
21,395000	0,66	-0,315560	
21,406000	0,66	-0,304570	
21,417000	0,66	-0,313060	
21,428000	0,66	-0,319370	
21,439000	0,66	-0,323120	
21,450000	0,66	-0,321020	
21,461000	0,66	-0,318800	
21,472000	0,66	-0,318870	
21,483000	0,66	-0,317310	
21,494000	0,66	-0,319640	
21,505000	0,66	-0,324620	
21,516000	0,66	-0,330050	
21,527000	0,66	-0,327670	
21,538000	0,66	-0,333200	
21,549000	0,66	-0,331560	
21,560000	0,66	-0,334130	
21,571000	0,66	-0,336110	
21,582000	0,66	-0,343450	
21,593000	0,66	-0,350880	
21,604000	0,66	-0,332720	
21,615000	0,66	-0,326400	
21,626000	0,66	-0,325020	
21,637000	0,66	-0,325630	
21,648000	0,66	-0,326720	
21,659000	0,66	-0,325760	
21,670000	0,66	-0,325120	
21,681000	0,66	-0,319630	
21,692000	0,66	-0,325870	
21,703000	0,66	-0,323790	
21,714000	0,66	-0,331830	
21,725000	0,66	-0,338900	
21,736000	0,66	-0,347650	
21,747000	0,66	-0,337960	
21,758000	0,66	-0,332330	
21,769000	0,66	-0,331360	
21,780000	0,66	-0,326210	
21,791000	0,66	-0,317770	
21,802000	0,66	-0,322950	
21,813000	0,66	-0,321510	
21,824000	0,66	-0,320750	
21,835000	0,66	-0,319030	
21,846000	0,66	-0,313150	
21,857000	0,66	-0,314760	
21,868000	0,66	-0,320190	
21,879000	0,66	-0,330640	
21,890000	0,66	-0,338410	
21,901000	0,66	-0,344890	
21,912000	0,66	-0,339370	
21,923000	0,66	-0,330740	
21,934000	0,66	-0,331000	
21,945000	0,66	-0,335810	
21,956000	0,66	-0,344690	
21,967000	0,66	-0,348240	
21,978000	0,66	-0,340800	
21,989000	0,66	-0,330530	
22,000000	0,66	-0,329530	
22,011000	0,66	-0,336110	
22,022000	0,66	-0,340470	
22,033000	0,66	-0,339480	
22,044000	0,66	-0,331440	
22,055000	0,66	-0,330360	
22,066000	0,66	-0,331720	
22,077000	0,66	-0,323610	
22,088000	0,66	-0,318080	
22,099000	0,66	-0,317280	
22,110000	0,66	-0,325300	
22,121000	0,66	-0,325300	
22,132000	0,66	-0,316900	
22,143000	0,66	-0,332760	
22,154000	0,66	-0,333950	
22,165000	0,66	-0,321430	
22,176000	0,66	-0,318970	
22,187000	0,66	-0,326170	
22,198000	0,66	-0,330470	
22,209000	0,66	-0,324980	
22,220000	0,66	-0,326940	
22,231000	0,66	-0,322820	
22,242000	0,66	-0,322990	
22,253000	0,66	-0,325520	
22,264000	0,66	-0,326960	
22,275000	0,66	-0,335510	
22,286000	0,66	-0,334700	
22,297000	0,66	-0,345190	
22,308000	0,66	-0,350310	
22,319000	0,66	-0,345390	
22,330000	0,66	-0,335870	
22,341000	0,66	-0,336740	
22,352000	0,66	-0,345450	
22,363000	0,66	-0,343590	
22,374000	0,66	-0,345290	
22,385000	0,66	-0,350980	
22,396000	0,66	-0,348030	
22,407000	0,66	-0,342730	
22,418000	0,66	-0,343490	
22,429000	0,66	-0,337020	
22,440000	0,66	-0,324350	
22,451000	0,66	-0,329360	
22,462000	0,66	-0,329340	
22,473000	0,66	-0,317480	
22,484000	0,66	-0,311240	
22,495000	0,66	-0,312930	
22,506000	0,66	-0,324780	
22,517000	0,66	-0,322330	
22,528000	0,66	-0,320660	
22,539000	0,66	-0,320960	
22,550000	0,66	-0,325590	
22,561000	0,66	-0,333160	
22,572000	0,66	-0,345970	
22,583000	0,66	-0,347990	
22,594000	0,66	-0,342280	
22,605000	0,66	-0,344840	
22,616000	0,66	-0,352980	
22,627000	0,66	-0,351370	
22,638000	0,66	-0,345600	
22,649000	0,66	-0,344530	
22,660000	0,66	-0,347490	
22,671000	0,66	-0,351740	
22,682000	0,66	-0,344500	
22,693000	0,66	-0,344660	
22,704000	0,66	-0,353080	
22,715000	0,66	-0,349760	
22,726000	0,66	-0,351160	
22,737000	0,66	-0,351140	
22,748000	0,66	-0,347600	
22,759000	0,66	-0,343140	
22,770000	0,66	-0,342960	
22,781000	0,66	-0,349320	
22,792000	0,66	-0,350780	
22,803000	0,66	-0,339500	
22,814000	0,66	-0,335390	
22,825000	0,66	-0,339610	
22,836000	0,66	-0,339350	
22,847000	0,66	-0,340100	
22,858000	0,66	-0,344310	
22,869000	0,66	-0,342140	
22,880000	0,66	-0,337530	
22,891000	0,66	-0,346370	
22,902000	0,66	-0,340360	
22,913000	0,66	-0,333630	
22,924000	0,66	-0,343930	
22,935000	0,66	-0,341120	
22,946000	0,66	-0,331430	
22,957000	0,66	-0,329460	
22,968000	0,66	-0,336040	
22,979000	0,66	-0,340430	
22,990000	0,66	-0,342330	
23,001000	0,66	-0,330420	
23,012000	0,66	-0,342150	
23,023000	0,66	-0,339030	
23,034000	0,66	-0,340360	
23,045000	0,66	-0,346360	
23,056000	0,66	-0,358340	
23,067000	0,66	-0,358850	
23,078000	0,66	-0,355660	
23,089000	0,66	-0,351240	
23,100000	0,66	-0,348900	
23,111000	0,66	-0,340930	
23,122000	0,66	-0,332370	
23,133000	0,66	-0,338290	
23,144000	0,66	-0,344380	
23,155000	0,66	-0,343420	
23,166000	0,66	-0,338370	
23,177000	0,66	-0,343510	
23,188000	0,66	-0,348430	
23,199000	0,66	-0,342350	
23,210000	0,66	-0,334850	
23,221000	0,66	-0,338790	
23,232000	0,66	-0,340280	
23,243000	0,66	-0,338790	
23,254000	0,66	-0,337180	
23,265000	0,66	-0,334620	
23,276000	0,66	-0,335670	
23,287000	0,66	-0,329710	
23,298000	0,66	-0,327060	
23,309000	0,66	-0,327900	
23,320000	0,66	-0,333190	
23,331000	0,66	-0,340410	
23,342000	0,66	-0,346990	
23,353000	0,66	-0,349350	
23,364000	0,66	-0,337260	
23,375000	0,66	-0,327290	
23,386000	0,66	-0,329340	
23,397000	0,66	-0,329890	
23,408000	0,66	-0,321740	
23,419000	0,66	-0,316740	
23,430000	0,66	-0,322940	
23,441000	0,66	-0,324430	
23,452000	0,66	-0,324440	
23,463000	0,66	-0,320110	
23,474000	0,66	-0,315620	
23,485000	0,66	-0,319120	
23,496000	0,66	-0,325340	
23,507000	0,66	-0,330530	
23,518000	0,66	-0,329480	
23,529000	0,66	-0,333600	
23,540000	0,66	-0,339090	
23,551000	0,66	-0,332930	
23,562000	0,66	-0,323050	
23,573000	0,66	-0,331590	
23,584000	0,66	-0,332500	
23,595000	0,66	-0,325790	
23,606000	0,66	-0,326960	
23,617000	0,66	-0,336820	
23,628000	0,66	-0,344950	
23,639000	0,66	-0,343910	
23,650000	0,66	-0,348780	
23,661000	0,66	-0,350260	
23,672000	0,66	-0,351690	
23,683000	0,66	-0,343810	
23,694000	0,66	-0,328140	
23,705000	0,66	-0,327680	
23,716000	0,66	-0,339670	
23,727000	0,66	-0,349090	
23,738000	0,66	-0,352310	
23,749000	0,66	-0,359280	
23,760000	0,66	-0,354920	
23,771000	0,66	-0,338250	
23,782000	0,66	-0,342820	
23,793000	0,66	-0,350680	
23,804000	0,66	-0,340950	
23,815000	0,66	-0,344670	
23,826000	0,66	-0,346920	
23,837000	0,66	-0,345860	
23,848000	0,66	-0,344430	
23,859000	0,66	-0,335990	
23,870000	0,66	-0,328430	
23,881000	0,66	-0,331340	
23,892000	0,66	-0,342990	
23,903000	0,66	-0,358090	
23,914000	0,66	-0,354770	
23,925000	0,66	-0,359800	
23,936000	0,66	-0,357000	
23,947000	0,66	-0,339990	
23,958000	0,66	-0,331730	
23,969000	0,66	-0,329060	
23,980000	0,66	-0,335130	
23,991000	0,66	-0,336970	
24,002000	0,66	-0,334440	
24,013000	0,66	-0,336030	
24,024000	0,66	-0,333070	
24,035000	0,66	-0,329800	
24,046000	0,66	-0,327430	
24,057000	0,66	-0,333810	
24,068000	0,66	-0,337710	
24,079000	0,66	-0,341850	
24,090000	0,66	-0,353780	
24,101000	0,66	-0,350310	
24,112000	0,66	-0,337900	
24,123000	0,66	-0,336850	
24,134000	0,66	-0,340580	
24,145000	0,66	-0,338390	
24,156000	0,66	-0,337520	
24,167000	0,66	-0,335430	
24,178000	0,66	-0,340800	
24,189000	0,66	-0,339850	
24,200000	0,66	-0,329810	
24,211000	0,66	-0,317360	
24,222000	0,66	-0,327090	
24,233000	0,66	-0,336800	
24,244000	0,66	-0,337270	
24,255000	0,66	-0,324140	
24,266000	0,66	-0,327630	
24,277000	0,66	-0,322030	
24,288000	0,66	-0,312580	
24,299000	0,66	-0,316220	
24,310000	0,66	-0,314940	
24,321000	0,66	-0,313430	
24,332000	0,66	-0,311690	
24,343000	0,66	-0,324520	
24,354000	0,66	-0,333000	
24,365000	0,66	-0,326600	
24,376000	0,66	-0,311530	
24,387000	0,66	-0,311460	
24,398000	0,66	-0,313620	
24,409000	0,66	-0,320660	
24,420000	0,66	-0,325330	
24,431000	0,66	-0,322420	
24,442000	0,66	-0,303660	
24,453000	0,66	-0,298590	
24,464000	0,66	-0,304110	
24,475000	0,66	-0,316280	
24,486000	0,66	-0,325760	
24,497000	0,66	-0,327520	
24,508000	0,66	-0,333990	
24,519000	0,66	-0,340010	
24,530000	0,66	-0,339280	
24,541000	0,66	-0,347490	
24,552000	0,66	-0,344030	
24,563000	0,66	-0,346300	
24,574000	0,66	-0,343700	
24,585000	0,66	-0,334480	
24,596000	0,66	-0,326030	
24,607000	0,66	-0,325220	
24,618000	0,66	-0,333690	
24,629000	0,66	-0,344400	
24,640000	0,66	-0,346340	
24,651000	0,66	-0,344630	
24,662000	0,66	-0,337720	
24,673000	0,66	-0,337400	
24,684000	0,66	-0,343960	
24,695000	0,66	-0,338120	
24,706000	0,66	-0,332690	
24,717000	0,66	-0,331120	
24,728000	0,66	-0,325360	
24,739000	0,66	-0,323580	
24,750000	0,66	-0,326690	
24,761000	0,66	-0,329850	
24,772000	0,66	-0,329820	
24,783000	0,66	-0,337970	
24,794000	0,66	-0,346050	
24,805000	0,66	-0,337560	
24,816000	0,66	-0,329270	
24,827000	0,66	-0,329280	
24,838000	0,66	-0,334430	
24,849000	0,66	-0,332080	
24,860000	0,66	-0,330550	
24,871000	0,66	-0,334760	
24,882000	0,66	-0,341630	
24,893000	0,66	-0,338460	
24,904000	0,66	-0,338830	
24,915000	0,66	-0,341090	
24,926000	0,66	-0,330940	
24,937000	0,66	-0,334710	
24,948000	0,66	-0,337120	
24,959000	0,66	-0,334200	
24,970000	0,66	-0,332810	
24,981000	0,66	-0,340870	
24,992000	0,66	-0,340730	
25,003000	0,66	-0,330480	
25,014000	0,66	-0,331950	
25,025000	0,66	-0,336680	
25,036000	0,66	-0,337190	
25,047000	0,66	-0,339250	
25,058000	0,66	-0,347080	
25,069000	0,66	-0,352250	
25,080000	0,66	-0,342600	
25,091000	0,66	-0,331410	
25,102000	0,66	-0,324210	
25,113000	0,66	-0,334530	
25,124000	0,66	-0,340390	
25,135000	0,66	-0,330070	
25,146000	0,66	-0,316410	
25,157000	0,66	-0,323000	
25,168000	0,66	-0,316960	
25,179000	0,66	-0,322760	
25,190000	0,66	-0,325030	
25,201000	0,66	-0,327720	
25,212000	0,66	-0,331090	
25,223000	0,66	-0,330810	
25,234000	0,66	-0,331550	
25,245000	0,66	-0,328670	
25,256000	0,66	-0,323440	
25,267000	0,66	-0,332110	
25,278000	0,66	-0,345650	
25,289000	0,66	-0,349490	
25,300000	0,66	-0,347370	
25,311000	0,66	-0,352220	
25,322000	0,66	-0,355040	
25,333000	0,66	-0,350050	
25,344000	0,66	-0,343070	
25,355000	0,66	-0,338440	
25,366000	0,66	-0,339340	
25,377000	0,66	-0,348230	
25,388000	0,66	-0,352250	
25,399000	0,66	-0,342370	
25,410000	0,66	-0,344540	
25,421000	0,66	-0,348190	
25,432000	0,66	-0,345140	
25,443000	0,66	-0,346540	
25,454000	0,66	-0,347530	
25,465000	0,66	-0,346770	
25,476000	0,66	-0,344240	
25,487000	0,66	-0,338030	
25,498000	0,66	-0,342700	
25,509000	0,66	-0,347300	
25,520000	0,66	-0,345420	
25,531000	0,66	-0,354270	
25,542000	0,66	-0,357730	
25,553000	0,66	-0,357210	
25,564000	0,66	-0,354270	
25,575000	0,66	-0,343640	
25,586000	0,66	-0,332000	
25,597000	0,66	-0,340690	
25,608000	0,66	-0,351450	
25,619000	0,66	-0,355760	
25,630000	0,66	-0,348020	
25,641000	0,66	-0,339170	
25,652000	0,66	-0,342660	
25,663000	0,66	-0,348600	
25,674000	0,66	-0,357380	
25,685000	0,66	-0,364550	
25,696000	0,66	-0,365810	
25,707000	0,66	-0,364460	
25,718000	0,66	-0,360400	
25,729000	0,66	-0,358800	
25,740000	0,66	-0,355360	
25,751000	0,66	-0,351680	
25,762000	0,66	-0,345240	
25,773000	0,66	-0,341370	
25,784000	0,66	-0,340450	
25,795000	0,66	-0,341140	
25,806000	0,66	-0,339420	
25,817000	0,66	-0,337730	
25,828000	0,66	-0,338550	
25,839000	0,66	-0,331930	
25,850000	0,66	-0,329210	
25,861000	0,66	-0,334100	
25,872000	0,66	-0,328590	
25,883000	0,66	-0,321860	
25,894000	0,66	-0,326780	
25,905000	0,66	-0,330960	
25,916000	0,66	-0,331610	
25,927000	0,66	-0,328430	
25,938000	0,66	-0,338960	
25,949000	0,66	-0,345480	
25,960000	0,66	-0,347780	
25,971000	0,66	-0,350650	
25,982000	0,66	-0,338420	
25,993000	0,66	-0,338860	
26,004000	0,66	-0,336460	
26,015000	0,66	-0,334370	
26,026000	0,66	-0,333670	
26,037000	0,66	-0,336820	
26,048000	0,66	-0,332650	
26,059000	0,66	-0,330950	
26,070000	0,66	-0,326470	
26,081000	0,66	-0,320860	
26,092000	0,66	-0,324540	
26,103000	0,66	-0,335760	
26,114000	0,66	-0,337570	
26,125000	0,66	-0,340700	
26,136000	0,66	-0,348350	
26,147000	0,66	-0,344700	
26,158000	0,66	-0,340750	
26,169000	0,66	-0,340460	
26,180000	0,66	-0,340650	
26,191000	0,66	-0,349000	
26,202000	0,66	-0,356070	
26,213000	0,66	-0,349460	
26,224000	0,66	-0,337680	
26,235000	0,66	-0,331980	
26,246000	0,66	-0,322990	
26,257000	0,66	-0,319860	
26,268000	0,66	-0,334000	
26,279000	0,66	-0,341680	
26,290000	0,66	-0,343810	
26,301000	0,66	-0,350150	
26,312000	0,66	-0,361520	
26,323000	0,66	-0,357470	
26,334000	0,66	-0,353180	
26,345000	0,66	-0,349440	
26,356000	0,66	-0,337000	
26,367000	0,66	-0,337210	
26,378000	0,66	-0,348840	
26,389000	0,66	-0,356170	
26,400000	0,66	-0,355270	
26,411000	0,66	-0,360780	
26,422000	0,66	-0,367580	
26,433000	0,66	-0,372160	
26,444000	0,66	-0,367740	
26,455000	0,66	-0,363480	
26,466000	0,66	-0,368370	
26,477000	0,66	-0,376260	
26,488000	0,66	-0,367030	
26,499000	0,66	-0,361720	
26,510000	0,66	-0,349830	
26,521000	0,66	-0,347320	
26,532000	0,66	-0,344590	
26,543000	0,66	-0,355910	
26,554000	0,66	-0,353770	
26,565000	0,66	-0,352900	
26,576000	0,66	-0,353700	
26,587000	0,66	-0,361420	
26,598000	0,66	-0,354980	
26,609000	0,66	-0,360990	
26,620000	0,66	-0,364790	
26,631000	0,66	-0,364550	
26,642000	0,66	-0,360740	
26,653000	0,66	-0,358700	
26,664000	0,66	-0,366420	
26,675000	0,66	-0,361330	
26,686000	0,66	-0,357450	
26,697000	0,66	-0,363260	
26,708000	0,66	-0,359500	
26,719000	0,66	-0,365080	
26,730000	0,66	-0,369880	
26,741000	0,66	-0,367570	
26,752000	0,66	-0,370410	
26,763000	0,66	-0,374940	
26,774000	0,66	-0,379820	
26,785000	0,66	-0,382510	
26,796000	0,66	-0,377170	
26,807000	0,66	-0,373340	
26,818000	0,66	-0,369410	
26,829000	0,66	-0,371220	
26,840000	0,66	-0,375250	
26,851000	0,66	-0,376520	
26,862000	0,66	-0,379880	
26,873000	0,66	-0,378940	
26,884000	0,66	-0,375930	
26,895000	0,66	-0,379620	
26,906000	0,66	-0,382140	
26,917000	0,66	-0,377040	
26,928000	0,66	-0,378970	
26,939000	0,66	-0,381170	
26,950000	0,66	-0,370690	
26,961000	0,66	-0,366510	
26,972000	0,66	-0,361370	
26,983000	0,66	-0,358940	
26,994000	0,66	-0,363420	
27,005000	0,66	-0,379090	
27,016000	0,66	-0,386620	
27,027000	0,66	-0,364470	
27,038000	0,66	-0,360130	
27,049000	0,66	-0,360480	
27,060000	0,66	-0,359110	
27,071000	0,66	-0,375210	
27,082000	0,66	-0,389860	
27,093000	0,66	-0,389140	
27,104000	0,66	-0,389910	
27,115000	0,66	-0,383040	
27,126000	0,66	-0,387490	
27,137000	0,66	-0,378740	
27,148000	0,66	-0,371660	
27,159000	0,66	-0,378910	
27,170000	0,66	-0,389610	
27,181000	0,66	-0,385290	
27,192000	0,66	-0,376880	
27,203000	0,66	-0,380110	
27,214000	0,66	-0,383690	
27,225000	0,66	-0,388150	
27,236000	0,66	-0,379520	
27,247000	0,66	-0,372840	
27,258000	0,66	-0,375890	
27,269000	0,66	-0,364200	
27,280000	0,66	-0,358630	
27,291000	0,66	-0,362040	
27,302000	0,66	-0,362580	
27,313000	0,66	-0,368710	
27,324000	0,66	-0,363480	
27,335000	0,66	-0,359150	
27,346000	0,66	-0,366090	
27,357000	0,66	-0,371630	
27,368000	0,66	-0,377910	
27,379000	0,66	-0,381380	
27,390000	0,66	-0,390100	
27,401000	0,66	-0,398300	
27,412000	0,66	-0,393770	
27,423000	0,66	-0,393100	
27,434000	0,66	-0,394630	
27,445000	0,66	-0,389390	
27,456000	0,66	-0,386740	
27,467000	0,66	-0,378450	
27,478000	0,66	-0,368260	
27,489000	0,66	-0,366460	
27,500000	0,66	-0,366900	
27,511000	0,66	-0,369800	
27,522000	0,66	-0,376280	
27,533000	0,66	-0,384100	
27,544000	0,66	-0,384960	
27,555000	0,66	-0,376910	
27,566000	0,66	-0,372910	
27,577000	0,66	-0,378240	
27,588000	0,66	-0,381320	
27,599000	0,66	-0,381460	
27,610000	0,66	-0,378660	
27,621000	0,66	-0,371700	
27,632000	0,66	-0,378770	
27,643000	0,66	-0,391990	
27,654000	0,66	-0,399440	
27,665000	0,66	-0,396760	
27,676000	0,66	-0,385940	
27,687000	0,66	-0,376510	
27,698000	0,66	-0,367540	
27,709000	0,66	-0,352660	
27,720000	0,66	-0,355310	
27,731000	0,66	-0,370700	
27,742000	0,66	-0,387650	
27,753000	0,66	-0,394710	
27,764000	0,66	-0,391350	
27,775000	0,66	-0,382840	
27,786000	0,66	-0,385030	
27,797000	0,66	-0,383080	
27,808000	0,66	-0,385400	
27,819000	0,66	-0,387610	
27,830000	0,66	-0,386690	
27,841000	0,66	-0,382270	
27,852000	0,66	-0,373750	
27,863000	0,66	-0,359900	
27,874000	0,66	-0,361960	
27,885000	0,66	-0,356740	
27,896000	0,66	-0,358270	
27,907000	0,66	-0,368170	
27,918000	0,66	-0,374110	
27,929000	0,66	-0,380820	
27,940000	0,66	-0,383260	
27,951000	0,66	-0,379910	
27,962000	0,66	-0,372640	
27,973000	0,66	-0,363130	
27,984000	0,66	-0,365230	
27,995000	0,66	-0,367750	
28,006000	0,66	-0,360310	
28,017000	0,66	-0,358460	
28,028000	0,66	-0,358150	
28,039000	0,66	-0,355260	
28,050000	0,66	-0,368980	
28,061000	0,66	-0,375350	
28,072000	0,66	-0,377200	
28,083000	0,66	-0,383290	
28,094000	0,66	-0,390560	
28,105000	0,66	-0,391410	
28,116000	0,66	-0,387790	
28,127000	0,66	-0,380740	
28,138000	0,66	-0,366900	
28,149000	0,66	-0,368530	
28,160000	0,66	-0,372850	
28,171000	0,66	-0,371420	
28,182000	0,66	-0,370600	
28,193000	0,66	-0,364710	
28,204000	0,66	-0,367530	
28,215000	0,66	-0,373480	
28,226000	0,66	-0,367940	
28,237000	0,66	-0,364750	
28,248000	0,66	-0,367500	
28,259000	0,66	-0,376060	
28,270000	0,66	-0,383430	
28,281000	0,66	-0,377960	
28,292000	0,66	-0,373070	
28,303000	0,66	-0,377800	
28,314000	0,66	-0,381430	
28,325000	0,66	-0,379840	
28,336000	0,66	-0,384270	
28,347000	0,66	-0,383350	
28,358000	0,66	-0,381100	
28,369000	0,66	-0,373000	
28,380000	0,66	-0,364730	
28,391000	0,66	-0,373790	
28,402000	0,66	-0,386530	
28,413000	0,66	-0,385460	
28,424000	0,66	-0,388160	
28,435000	0,66	-0,391810	
28,446000	0,66	-0,393920	
28,457000	0,66	-0,379070	
28,468000	0,66	-0,375190	
28,479000	0,66	-0,380380	
28,490000	0,66	-0,382920	
28,501000	0,66	-0,385590	
28,512000	0,66	-0,386290	
28,523000	0,66	-0,381500	
28,534000	0,66	-0,390350	
28,545000	0,66	-0,388810	
28,556000	0,66	-0,385990	
28,567000	0,66	-0,388940	
28,578000	0,66	-0,387920	
28,589000	0,66	-0,380080	
28,600000	0,66	-0,380440	
28,611000	0,66	-0,385840	
28,622000	0,66	-0,387530	
28,633000	0,66	-0,380160	
28,644000	0,66	-0,372000	
28,655000	0,66	-0,365760	
28,666000	0,66	-0,375470	
28,677000	0,66	-0,378570	
28,688000	0,66	-0,381630	
28,699000	0,66	-0,384290	
28,710000	0,66	-0,391120	
28,721000	0,66	-0,392730	
28,732000	0,66	-0,386780	
28,743000	0,66	-0,387480	
28,754000	0,66	-0,380790	
28,765000	0,66	-0,379440	
28,776000	0,66	-0,381770	
28,787000	0,66	-0,387720	
28,798000	0,66	-0,380970	
28,809000	0,66	-0,385420	
28,820000	0,66	-0,390240	
28,831000	0,66	-0,391740	
28,842000	0,66	-0,384850	
28,853000	0,66	-0,384060	
28,864000	0,66	-0,391680	
28,875000	0,66	-0,386690	
28,886000	0,66	-0,379840	
28,897000	0,66	-0,378930	
28,908000	0,66	-0,381200	
28,919000	0,66	-0,387360	
28,930000	0,66	-0,392010	
28,941000	0,66	-0,390410	
28,952000	0,66	-0,384240	
28,963000	0,66	-0,383410	
28,974000	0,66	-0,390500	
28,985000	0,66	-0,393200	
28,996000	0,66	-0,384570	
29,007000	0,66	-0,371980	
29,018000	0,66	-0,367750	
29,029000	0,66	-0,373100	
29,040000	0,66	-0,381970	
29,051000	0,66	-0,392260	
29,062000	0,66	-0,396530	
29,073000	0,66	-0,397080	
29,084000	0,66	-0,402000	
29,095000	0,66	-0,400420	
29,106000	0,66	-0,406830	
29,117000	0,66	-0,401440	
29,128000	0,66	-0,397190	
29,139000	0,66	-0,389880	
29,150000	0,66	-0,382050	
29,161000	0,66	-0,378620	
29,172000	0,66	-0,375720	
29,183000	0,66	-0,380070	
29,194000	0,66	-0,382350	
29,205000	0,66	-0,383370	
29,216000	0,66	-0,378670	
29,227000	0,66	-0,385760	
29,238000	0,66	-0,392300	
29,249000	0,66	-0,399050	
29,260000	0,66	-0,398960	
29,271000	0,66	-0,395340	
29,282000	0,66	-0,387890	
29,293000	0,66	-0,384510	
29,304000	0,66	-0,390700	
29,315000	0,66	-0,391580	
29,326000	0,66	-0,392390	
29,337000	0,66	-0,391280	
29,348000	0,66	-0,397230	
29,359000	0,66	-0,395510	
29,370000	0,66	-0,392300	
29,381000	0,66	-0,392800	
29,392000	0,66	-0,396400	
29,403000	0,66	-0,402160	
29,414000	0,66	-0,401410	
29,425000	0,66	-0,406930	
29,436000	0,66	-0,411690	
29,447000	0,66	-0,407580	
29,458000	0,66	-0,395030	
29,469000	0,66	-0,393500	
29,480000	0,66	-0,392410	
29,491000	0,66	-0,390740	
29,502000	0,66	-0,386860	
29,513000	0,66	-0,387380	
29,524000	0,66	-0,391210	
29,535000	0,66	-0,392710	
29,546000	0,66	-0,401950	
29,557000	0,66	-0,405100	
29,568000	0,66	-0,401450	
29,579000	0,66	-0,390760	
29,590000	0,66	-0,391580	
29,601000	0,66	-0,393130	
29,612000	0,66	-0,387900	
29,623000	0,66	-0,385170	
29,634000	0,66	-0,379300	
29,645000	0,66	-0,380860	
29,656000	0,66	-0,380850	
29,667000	0,66	-0,377850	
29,678000	0,66	-0,383690	
29,689000	0,66	-0,384470	
29,700000	0,66	-0,385190	
29,711000	0,66	-0,386660	
29,722000	0,66	-0,385190	
29,733000	0,66	-0,382120	
29,744000	0,66	-0,380750	
29,755000	0,66	-0,378770	
29,766000	0,66	-0,375320	
29,777000	0,66	-0,381320	
29,788000	0,66	-0,392350	
29,799000	0,66	-0,394120	
29,810000	0,66	-0,386800	
29,821000	0,66	-0,382890	
29,832000	0,66	-0,388430	
29,843000	0,66	-0,380980	
29,854000	0,66	-0,390970	
29,865000	0,66	-0,390730	
29,876000	0,66	-0,394360	
29,887000	0,66	-0,391620	
29,898000	0,66	-0,390180	
29,909000	0,66	-0,382810	
29,920000	0,66	-0,381620	
29,931000	0,66	-0,390460	
29,942000	0,66	-0,390990	
29,953000	0,66	-0,386120	
29,964000	0,66	-0,385530	
29,975000	0,66	-0,386340	
29,986000	0,66	-0,396730	
29,997000	0,66	-0,407790	
30,008000	0,66	-0,399700	
30,019000	0,66	-0,387940	
30,030000	0,66	-0,375840	
30,041000	0,66	-0,371870	
30,052000	0,66	-0,376610	
30,063000	0,66	-0,387220	
30,074000	0,66	-0,394660	
30,085000	0,66	-0,384430	
30,096000	0,66	-0,377410	
30,107000	0,66	-0,385370	
30,118000	0,66	-0,377210	
30,129000	0,66	-0,371610	
30,140000	0,66	-0,386230	
30,151000	0,66	-0,394050	
30,162000	0,66	-0,387960	
30,173000	0,66	-0,380690	
30,184000	0,66	-0,385950	
30,195000	0,66	-0,394010	
30,206000	0,66	-0,390620	
30,217000	0,66	-0,391060	
30,228000	0,66	-0,386080	
30,239000	0,66	-0,383690	
30,250000	0,66	-0,390550	
30,261000	0,66	-0,388320	
30,272000	0,66	-0,380790	
30,283000	0,66	-0,381360	
30,294000	0,66	-0,381010	
30,305000	0,66	-0,379180	
30,316000	0,66	-0,380750	
30,327000	0,66	-0,381740	
30,338000	0,66	-0,384530	
30,349000	0,66	-0,395380	
30,360000	0,66	-0,399650	
30,371000	0,66	-0,392560	
30,382000	0,66	-0,384220	
30,393000	0,66	-0,383720	
30,404000	0,66	-0,398520	
30,415000	0,66	-0,397460	
30,426000	0,66	-0,384580	
30,437000	0,66	-0,392190	
30,448000	0,66	-0,403720	
30,459000	0,66	-0,402530	
30,470000	0,66	-0,408810	
30,481000	0,66	-0,421710	
30,492000	0,66	-0,420160	
30,503000	0,66	-0,410940	
30,514000	0,66	-0,406840	
30,525000	0,66	-0,397740	
30,536000	0,66	-0,389850	
30,547000	0,66	-0,394170	
30,558000	0,66	-0,399300	
30,569000	0,66	-0,399150	
30,580000	0,66	-0,393870	
30,591000	0,66	-0,397650	
30,602000	0,66	-0,399850	
30,613000	0,66	-0,402070	
30,624000	0,66	-0,401720	
30,635000	0,66	-0,403880	
30,646000	0,66	-0,395680	
30,657000	0,66	-0,392630	
30,668000	0,66	-0,398600	
30,679000	0,66	-0,394980	
30,690000	0,66	-0,388300	
30,701000	0,66	-0,393580	
30,712000	0,66	-0,406470	
30,723000	0,66	-0,410830	
30,734000	0,66	-0,407090	
30,745000	0,66	-0,401340	
30,756000	0,66	-0,397830	
30,767000	0,66	-0,403200	
30,778000	0,66	-0,403400	
30,789000	0,66	-0,403550	
30,800000	0,66	-0,405630	
30,811000	0,66	-0,396260	
30,822000	0,66	-0,395450	
30,833000	0,66	-0,392270	
30,844000	0,66	-0,387190	
30,855000	0,66	-0,389560	
30,866000	0,66	-0,394480	
30,877000	0,66	-0,396720	
30,888000	0,66	-0,398470	
30,899000	0,66	-0,404640	
30,910000	0,66	-0,407520	
30,921000	0,66	-0,414690	
30,932000	0,66	-0,411980	
30,943000	0,66	-0,406050	
30,954000	0,66	-0,405230	
30,965000	0,66	-0,398830	
30,976000	0,66	-0,387880	
30,987000	0,66	-0,393170	
30,998000	0,66	-0,399010	
31,009000	0,66	-0,401340	
31,020000	0,66	-0,395330	
31,031000	0,66	-0,391610	
31,042000	0,66	-0,397390	
31,053000	0,66	-0,401170	
31,064000	0,66	-0,401320	
31,075000	0,66	-0,400270	
31,086000	0,66	-0,400010	
31,097000	0,66	-0,394690	
31,108000	0,66	-0,399980	
31,119000	0,66	-0,404500	
31,130000	0,66	-0,401360	
31,141000	0,66	-0,397060	
31,152000	0,66	-0,390200	
31,163000	0,66	-0,392960	
31,174000	0,66	-0,387880	
31,185000	0,66	-0,382300	
31,196000	0,66	-0,383490	
31,207000	0,66	-0,379950	
31,218000	0,66	-0,376120	
31,229000	0,66	-0,372430	
31,240000	0,66	-0,385380	
31,251000	0,66	-0,395720	
31,262000	0,66	-0,401500	
31,273000	0,66	-0,404160	
31,284000	0,66	-0,385210	
31,295000	0,66	-0,378590	
31,306000	0,66	-0,380600	
31,317000	0,66	-0,384280	
31,328000	0,66	-0,376140	
31,339000	0,66	-0,375440	
31,350000	0,66	-0,380380	
31,361000	0,66	-0,385350	
31,372000	0,66	-0,390690	
31,383000	0,66	-0,395870	
31,394000	0,66	-0,399760	
31,405000	0,66	-0,398320	
31,416000	0,66	-0,405260	
31,427000	0,66	-0,413740	
31,438000	0,66	-0,417780	
31,449000	0,66	-0,421080	
31,460000	0,66	-0,406650	
31,471000	0,66	-0,396100	
31,482000	0,66	-0,410120	
31,493000	0,66	-0,412100	
31,504000	0,66	-0,405280	
31,515000	0,66	-0,405440	
31,526000	0,66	-0,410040	
31,537000	0,66	-0,404420	
31,548000	0,66	-0,407010	
31,559000	0,66	-0,399540	
31,570000	0,66	-0,384700	
31,581000	0,66	-0,378960	
31,592000	0,66	-0,387020	
31,603000	0,66	-0,384510	
31,614000	0,66	-0,377650	
31,625000	0,66	-0,380430	
31,636000	0,66	-0,379290	
31,647000	0,66	-0,387390	
31,658000	0,66	-0,393530	
31,669000	0,66	-0,398290	
31,680000	0,66	-0,404110	
31,691000	0,66	-0,401490	
31,702000	0,66	-0,393450	
31,713000	0,66	-0,388450	
31,724000	0,66	-0,389360	
31,735000	0,66	-0,405770	
31,746000	0,66	-0,418980	
31,757000	0,66	-0,415470	
31,768000	0,66	-0,413950	
31,779000	0,66	-0,411910	
31,790000	0,66	-0,408770	
31,801000	0,66	-0,402560	
31,812000	0,66	-0,403550	
31,823000	0,66	-0,400970	
31,834000	0,66	-0,387990	
31,845000	0,66	-0,391370	
31,856000	0,66	-0,401900	
31,867000	0,66	-0,402230	
31,878000	0,66	-0,404050	
31,889000	0,66	-0,405490	
31,900000	0,66	-0,398550	
31,911000	0,66	-0,392940	
31,922000	0,66	-0,387690	
31,933000	0,66	-0,387010	
31,944000	0,66	-0,397650	
31,955000	0,66	-0,399080	
31,966000	0,66	-0,386060	
31,977000	0,66	-0,384940	
31,988000	0,66	-0,397930	
31,999000	0,66	-0,401850	
32,010000	0,66	-0,402150	
32,021000	0,66	-0,408550	
32,032000	0,66	-0,406790	
32,043000	0,66	-0,398260	
32,054000	0,66	-0,392810	
32,065000	0,66	-0,390970	
32,076000	0,66	-0,390850	
32,087000	0,66	-0,391380	
32,098000	0,66	-0,402440	
32,109000	0,66	-0,403900	
32,120000	0,66	-0,396970	
32,131000	0,66	-0,403560	
32,142000	0,66	-0,412180	
32,153000	0,66	-0,401790	
32,164000	0,66	-0,401020	
32,175000	0,66	-0,402810	
32,186000	0,66	-0,410020	
32,197000	0,66	-0,397860	
32,208000	0,66	-0,387550	
32,219000	0,66	-0,395350	
32,230000	0,66	-0,404780	
32,241000	0,66	-0,408660	
32,252000	0,66	-0,405940	
32,263000	0,66	-0,411870	
32,274000	0,66	-0,414640	
32,285000	0,66	-0,411410	
32,296000	0,66	-0,405650	
32,307000	0,66	-0,403320	
32,318000	0,66	-0,404780	
32,329000	0,66	-0,407070	
32,340000	0,66	-0,412670	
32,351000	0,66	-0,415960	
32,362000	0,66	-0,418940	
32,373000	0,66	-0,417970	
32,384000	0,66	-0,414080	
32,395000	0,66	-0,417350	
32,406000	0,66	-0,408650	
32,417000	0,66	-0,396730	
32,428000	0,66	-0,396000	
32,439000	0,66	-0,400590	
32,450000	0,66	-0,407610	
32,461000	0,66	-0,409780	
32,472000	0,66	-0,414490	
32,483000	0,66	-0,418610	
32,494000	0,66	-0,415160	
32,505000	0,66	-0,416340	
32,516000	0,66	-0,418470	
32,527000	0,66	-0,413450	
32,538000	0,66	-0,400530	
32,549000	0,66	-0,397040	
32,560000	0,66	-0,398850	
32,571000	0,66	-0,398790	
32,582000	0,66	-0,401150	
32,593000	0,66	-0,398790	
32,604000	0,66	-0,399780	
32,615000	0,66	-0,396920	
32,626000	0,66	-0,395160	
32,637000	0,66	-0,396300	
32,648000	0,66	-0,397390	
32,659000	0,66	-0,406290	
32,670000	0,66	-0,401120	
32,681000	0,66	-0,408030	
32,692000	0,66	-0,412600	
32,703000	0,66	-0,405730	
32,714000	0,66	-0,399430	
32,725000	0,66	-0,401600	
32,736000	0,66	-0,406960	
32,747000	0,66	-0,404970	
32,758000	0,66	-0,389790	
32,769000	0,66	-0,392920	
32,780000	0,66	-0,404920	
32,791000	0,66	-0,401670	
32,802000	0,66	-0,413380	
32,813000	0,66	-0,403840	
32,824000	0,66	-0,402680	
32,835000	0,66	-0,403850	
32,846000	0,66	-0,398910	
32,857000	0,66	-0,413640	
32,868000	0,66	-0,416830	
32,879000	0,66	-0,417230	
32,890000	0,66	-0,412870	
32,901000	0,66	-0,410440	
32,912000	0,66	-0,405320	
32,923000	0,66	-0,418100	
32,934000	0,66	-0,419980	
32,945000	0,66	-0,414650	
32,956000	0,66	-0,406670	
32,967000	0,66	-0,398870	
32,978000	0,66	-0,398730	
32,989000	0,66	-0,399860	
33,000000	0,66	-0,401680	
33,011000	0,66	-0,401400	
33,022000	0,66	-0,409530	
33,033000	0,66	-0,410790	
33,044000	0,66	-0,411090	
33,055000	0,66	-0,411550	
33,066000	0,66	-0,405110	
33,077000	0,66	-0,399250	
33,088000	0,66	-0,397900	
33,099000	0,66	-0,397920	
33,110000	0,66	-0,401830	
33,121000	0,66	-0,406840	
33,132000	0,66	-0,410210	
33,143000	0,66	-0,410770	
33,154000	0,66	-0,413010	
33,165000	0,66	-0,417070	
33,176000	0,66	-0,411400	
33,187000	0,66	-0,407190	
33,198000	0,66	-0,413360	
33,209000	0,66	-0,417170	
33,220000	0,66	-0,418150	
33,231000	0,66	-0,426410	
33,242000	0,66	-0,430600	
33,253000	0,66	-0,431270	
33,264000	0,66	-0,432010	
33,275000	0,66	-0,429760	
33,286000	0,66	-0,431220	
33,297000	0,66	-0,432260	
33,308000	0,66	-0,433770	
33,319000	0,66	-0,435080	
33,330000	0,66	-0,429120	
33,341000	0,66	-0,427160	
33,352000	0,66	-0,429710	
33,363000	0,66	-0,423630	
33,374000	0,66	-0,435820	
33,385000	0,66	-0,427910	
33,396000	0,66	-0,418190	
33,407000	0,66	-0,413010	
33,418000	0,66	-0,419070	
33,429000	0,66	-0,421150	
33,440000	0,66	-0,418990	
33,451000	0,66	-0,415910	
33,462000	0,66	-0,416870	
33,473000	0,66	-0,425870	
33,484000	0,66	-0,452560	
33,495000	0,66	-0,453320	
33,506000	0,66	-0,438600	
33,517000	0,66	-0,426970	
33,528000	0,66	-0,413260	
33,539000	0,66	-0,407250	
33,550000	0,66	-0,420010	
33,561000	0,66	-0,433840	
33,572000	0,66	-0,442380	
33,583000	0,66	-0,439730	
33,594000	0,66	-0,434970	
33,605000	0,66	-0,436160	
33,616000	0,66	-0,423660	
33,627000	0,66	-0,413760	
33,638000	0,66	-0,412300	
33,649000	0,66	-0,418870	
33,660000	0,66	-0,418160	
33,671000	0,66	-0,421060	
33,682000	0,66	-0,417500	
33,693000	0,66	-0,420950	
33,704000	0,66	-0,422280	
33,715000	0,66	-0,420850	
33,726000	0,66	-0,415630	
33,737000	0,66	-0,419900	
33,748000	0,66	-0,420470	
33,759000	0,66	-0,412900	
33,770000	0,66	-0,413440	
33,781000	0,66	-0,420980	
33,792000	0,66	-0,427210	
33,803000	0,66	-0,429120	
33,814000	0,66	-0,422320	
33,825000	0,66	-0,416600	
33,836000	0,66	-0,419770	
33,847000	0,66	-0,424530	
33,858000	0,66	-0,431070	
33,869000	0,66	-0,432280	
33,880000	0,66	-0,426130	
33,891000	0,66	-0,425450	
33,902000	0,66	-0,426030	
33,913000	0,66	-0,427040	
33,924000	0,66	-0,421890	
33,935000	0,66	-0,411650	
33,946000	0,66	-0,416310	
33,957000	0,66	-0,422630	
33,968000	0,66	-0,422500	
33,979000	0,66	-0,419150	
33,990000	0,66	-0,417360	
34,001000	0,66	-0,416380	
34,012000	0,66	-0,417560	
34,023000	0,66	-0,416860	
34,034000	0,66	-0,422380	
34,045000	0,66	-0,421900	
34,056000	0,66	-0,423730	
34,067000	0,66	-0,426100	
34,078000	0,66	-0,418200	
34,089000	0,66	-0,414370	
34,100000	0,66	-0,413460	
34,111000	0,66	-0,420800	
34,122000	0,66	-0,429310	
34,133000	0,66	-0,437590	
34,144000	0,66	-0,438960	
34,155000	0,66	-0,445390	
34,166000	0,66	-0,443880	
34,177000	0,66	-0,441280	
34,188000	0,66	-0,428270	
34,199000	0,66	-0,422710	
34,210000	0,66	-0,427950	
34,221000	0,66	-0,411600	
34,232000	0,66	-0,409750	
34,243000	0,66	-0,401210	
34,254000	0,66	-0,397040	
34,265000	0,66	-0,403320	
34,276000	0,66	-0,412710	
34,287000	0,66	-0,430640	
34,298000	0,66	-0,427780	
34,309000	0,66	-0,421860	
34,320000	0,66	-0,411710	
34,331000	0,66	-0,413440	
34,342000	0,66	-0,422240	
34,353000	0,66	-0,419160	
34,364000	0,66	-0,421660	
34,375000	0,66	-0,421140	
34,386000	0,66	-0,418420	
34,397000	0,66	-0,414280	
34,408000	0,66	-0,408550	
34,419000	0,66	-0,418140	
34,430000	0,66	-0,418440	
34,441000	0,66	-0,420560	
34,452000	0,66	-0,434530	
34,463000	0,66	-0,442140	
34,474000	0,66	-0,437550	
34,485000	0,66	-0,429810	
34,496000	0,66	-0,434960	
34,507000	0,66	-0,434840	
34,518000	0,66	-0,432980	
34,529000	0,66	-0,435140	
34,540000	0,66	-0,432180	
34,551000	0,66	-0,434480	
34,562000	0,66	-0,437790	
34,573000	0,66	-0,435110	
34,584000	0,66	-0,427440	
34,595000	0,66	-0,424870	
34,606000	0,66	-0,430000	
34,617000	0,66	-0,432970	
34,628000	0,66	-0,432150	
34,639000	0,66	-0,423270	
34,650000	0,66	-0,415820	
34,661000	0,66	-0,415960	
34,672000	0,66	-0,412570	
34,683000	0,66	-0,421750	
34,694000	0,66	-0,432670	
34,705000	0,66	-0,429470	
34,716000	0,66	-0,430830	
34,727000	0,66	-0,433820	
34,738000	0,66	-0,435040	
34,749000	0,66	-0,431360	
34,760000	0,66	-0,434140	
34,771000	0,66	-0,433890	
34,782000	0,66	-0,435170	
34,793000	0,66	-0,430080	
34,804000	0,66	-0,435920	
34,815000	0,66	-0,442550	
34,826000	0,66	-0,444950	
34,837000	0,66	-0,429020	
34,848000	0,66	-0,423510	
34,859000	0,66	-0,413830	
34,870000	0,66	-0,418480	
34,881000	0,66	-0,423010	
34,892000	0,66	-0,431330	
34,903000	0,66	-0,422980	
34,914000	0,66	-0,416440	
34,925000	0,66	-0,433980	
34,936000	0,66	-0,430930	
34,947000	0,66	-0,434510	
34,958000	0,66	-0,426750	
34,969000	0,66	-0,421100	
34,980000	0,66	-0,417050	
34,991000	0,66	-0,410380	
35,002000	0,66	-0,410200	
35,013000	0,66	-0,416220	
35,024000	0,66	-0,425220	
35,035000	0,66	-0,427190	
35,046000	0,66	-0,429980	
35,057000	0,66	-0,433220	
35,068000	0,66	-0,431740	
35,079000	0,66	-0,418100	
35,090000	0,66	-0,414270	
35,101000	0,66	-0,420310	
35,112000	0,66	-0,419850	
35,123000	0,66	-0,415270	
35,134000	0,66	-0,422330	
35,145000	0,66	-0,428690	
35,156000	0,66	-0,426460	
35,167000	0,66	-0,428480	
35,178000	0,66	-0,435400	
35,189000	0,66	-0,435630	
35,200000	0,66	-0,433140	
35,211000	0,66	-0,428780	
35,222000	0,66	-0,428440	
35,233000	0,66	-0,435740	
35,244000	0,66	-0,442770	
35,255000	0,66	-0,442930	
35,266000	0,66	-0,439800	
35,277000	0,66	-0,444220	
35,288000	0,66	-0,440310	
35,299000	0,66	-0,437990	
35,310000	0,66	-0,437630	
35,321000	0,66	-0,420040	
35,332000	0,66	-0,419950	
35,343000	0,66	-0,432040	
35,354000	0,66	-0,436570	
35,365000	0,66	-0,445250	
35,376000	0,66	-0,438800	
35,387000	0,66	-0,441420	
35,398000	0,66	-0,440310	
35,409000	0,66	-0,447790	
35,420000	0,66	-0,444110	
35,431000	0,66	-0,440130	
35,442000	0,66	-0,439880	
35,453000	0,66	-0,437510	
35,464000	0,66	-0,438040	
35,475000	0,66	-0,439210	
35,486000	0,66	-0,432400	
35,497000	0,66	-0,427320	
35,508000	0,66	-0,426870	
35,519000	0,66	-0,429750	
35,530000	0,66	-0,423990	
35,541000	0,66	-0,429030	
35,552000	0,66	-0,427940	
35,563000	0,66	-0,433200	
35,574000	0,66	-0,441410	
35,585000	0,66	-0,451040	
35,596000	0,66	-0,442740	
35,607000	0,66	-0,437550	
35,618000	0,66	-0,428920	
35,629000	0,66	-0,420370	
35,640000	0,66	-0,417470	
35,651000	0,66	-0,423430	
35,662000	0,66	-0,431920	
35,673000	0,66	-0,438260	
35,684000	0,66	-0,437190	
35,695000	0,66	-0,436570	
35,706000	0,66	-0,432150	
35,717000	0,66	-0,433940	
35,728000	0,66	-0,436830	
35,739000	0,66	-0,434540	
35,750000	0,66	-0,430080	
35,761000	0,66	-0,431110	
35,772000	0,66	-0,436870	
35,783000	0,66	-0,430280	
35,794000	0,66	-0,430860	
35,805000	0,66	-0,438440	
35,816000	0,66	-0,431350	
35,827000	0,66	-0,430690	
35,838000	0,66	-0,440810	
35,849000	0,66	-0,439850	
35,860000	0,66	-0,440760	
35,871000	0,66	-0,443130	
35,882000	0,66	-0,445280	
35,893000	0,66	-0,455520	
35,904000	0,66	-0,453870	
35,915000	0,66	-0,444670	
35,926000	0,66	-0,446110	
35,937000	0,66	-0,449120	
35,948000	0,66	-0,447070	
35,959000	0,66	-0,442300	
35,970000	0,66	-0,439910	
35,981000	0,66	-0,441900	
35,992000	0,66	-0,440840	
36,003000	0,66	-0,436960	
36,014000	0,66	-0,437890	
36,025000	0,66	-0,437800	
36,036000	0,66	-0,442840	
36,047000	0,66	-0,454300	
36,058000	0,66	-0,452660	
36,069000	0,66	-0,442240	
36,080000	0,66	-0,437890	
36,091000	0,66	-0,447460	
36,102000	0,66	-0,454850	
36,113000	0,66	-0,451010	
36,124000	0,66	-0,450550	
36,135000	0,66	-0,442780	
36,146000	0,66	-0,451650	
36,157000	0,66	-0,457850	
36,168000	0,66	-0,457510	
36,179000	0,66	-0,458730	
36,190000	0,66	-0,461970	
36,201000	0,66	-0,452680	
36,212000	0,66	-0,450620	
36,223000	0,66	-0,447170	
36,234000	0,66	-0,456520	
36,245000	0,66	-0,458700	
36,256000	0,66	-0,452600	
36,267000	0,66	-0,441630	
36,278000	0,66	-0,440630	
36,289000	0,66	-0,445850	
36,300000	0,66	-0,447630	
36,311000	0,66	-0,451310	
36,322000	0,66	-0,453110	
36,333000	0,66	-0,447050	
36,344000	0,66	-0,450520	
36,355000	0,66	-0,453770	
36,366000	0,66	-0,455030	
36,377000	0,66	-0,454170	
36,388000	0,66	-0,455290	
36,399000	0,66	-0,453430	
36,410000	0,66	-0,460040	
36,421000	0,66	-0,467780	
36,432000	0,66	-0,468680	
36,443000	0,66	-0,464270	
36,454000	0,66	-0,462820	
36,465000	0,66	-0,465070	
36,476000	0,66	-0,470130	
36,487000	0,66	-0,463930	
36,498000	0,66	-0,456570	
36,509000	0,66	-0,462850	
36,520000	0,66	-0,458750	
36,531000	0,66	-0,453860	
36,542000	0,66	-0,454030	
36,553000	0,66	-0,460060	
36,564000	0,66	-0,473240	
36,575000	0,66	-0,473940	
36,586000	0,66	-0,466770	
36,597000	0,66	-0,461510	
36,608000	0,66	-0,458620	
36,619000	0,66	-0,461470	
36,630000	0,66	-0,463160	
36,641000	0,66	-0,465520	
36,652000	0,66	-0,467840	
36,663000	0,66	-0,464060	
36,674000	0,66	-0,458670	
36,685000	0,66	-0,454160	
36,696000	0,66	-0,456450	
36,707000	0,66	-0,459780	
36,718000	0,66	-0,464670	
36,729000	0,66	-0,473410	
36,740000	0,66	-0,474190	
36,751000	0,66	-0,466770	
36,762000	0,66	-0,463190	
36,773000	0,66	-0,470140	
36,784000	0,66	-0,478170	
36,795000	0,66	-0,482350	
36,806000	0,66	-0,487680	
36,817000	0,66	-0,495620	
36,828000	0,66	-0,504840	
36,839000	0,66	-0,499710	
36,850000	0,66	-0,499630	
36,861000	0,66	-0,498310	
36,872000	0,66	-0,502000	
36,883000	0,66	-0,502880	
36,894000	0,66	-0,500620	
36,905000	0,66	-0,498920	
36,916000	0,66	-0,505660	
36,927000	0,66	-0,509300	
36,938000	0,66	-0,512860	
36,949000	0,66	-0,505950	
36,960000	0,66	-0,505710	
36,971000	0,66	-0,504720	
36,982000	0,66	-0,502660	
36,993000	0,66	-0,509630	
37,004000	0,66	-0,519180	
37,015000	0,66	-0,523070	
37,026000	0,66	-0,519220	
37,037000	0,66	-0,514770	
37,048000	0,66	-0,518150	
37,059000	0,66	-0,512040	
37,070000	0,66	-0,510050	
37,081000	0,66	-0,515210	
37,092000	0,66	-0,509950	
37,103000	0,66	-0,512670	
37,114000	0,66	-0,509550	
37,125000	0,66	-0,515640	
37,136000	0,66	-0,525160	
37,147000	0,66	-0,529540	
37,158000	0,66	-0,530310	
37,169000	0,66	-0,527110	
37,180000	0,66	-0,531950	
37,191000	0,66	-0,540090	
37,202000	0,66	-0,537170	
37,213000	0,66	-0,534380	
37,224000	0,66	-0,543570	
37,235000	0,66	-0,548100	
37,246000	0,66	-0,540220	
37,257000	0,66	-0,532150	
37,268000	0,66	-0,530420	
37,279000	0,66	-0,533490	
37,290000	0,66	-0,535240	
37,301000	0,66	-0,542420	
37,312000	0,66	-0,544790	
37,323000	0,66	-0,542960	
37,334000	0,66	-0,548900	
37,345000	0,66	-0,550540	
37,356000	0,66	-0,542350	
37,367000	0,66	-0,536870	
37,378000	0,66	-0,541140	
37,389000	0,66	-0,542670	
37,400000	0,66	-0,548390	
37,411000	0,66	-0,551820	
37,422000	0,66	-0,560070	
37,433000	0,66	-0,560280	
37,444000	0,66	-0,556310	
37,455000	0,66	-0,543070	
37,466000	0,66	-0,544280	
37,477000	0,66	-0,558010	
37,488000	0,66	-0,561130	
37,499000	0,66	-0,564360	
37,510000	0,66	-0,567710	
37,521000	0,66	-0,569080	
37,532000	0,66	-0,552770	
37,543000	0,66	-0,550820	
37,554000	0,66	-0,556840	
37,565000	0,66	-0,559140	
37,576000	0,66	-0,550210	
37,587000	0,66	-0,549290	
37,598000	0,66	-0,563630	
37,609000	0,66	-0,569400	
37,620000	0,66	-0,562530	
37,631000	0,66	-0,553920	
37,642000	0,66	-0,551030	
37,653000	0,66	-0,556300	
37,664000	0,66	-0,560030	
37,675000	0,66	-0,567660	
37,686000	0,66	-0,570010	
37,697000	0,66	-0,577990	
37,708000	0,66	-0,590280	
37,719000	0,66	-0,598410	
37,730000	0,66	-0,590790	
37,741000	0,66	-0,583990	
37,752000	0,66	-0,586060	
37,763000	0,66	-0,597180	
37,774000	0,66	-0,585820	
37,785000	0,66	-0,580360	
37,796000	0,66	-0,574600	
37,807000	0,66	-0,574420	
37,818000	0,66	-0,581640	
37,829000	0,66	-0,575620	
37,840000	0,66	-0,571970	
37,851000	0,66	-0,571000	
37,862000	0,66	-0,562740	
37,873000	0,66	-0,568050	
37,884000	0,66	-0,577880	
37,895000	0,66	-0,580140	
37,906000	0,66	-0,583160	
37,917000	0,66	-0,584710	
37,928000	0,66	-0,577370	
37,939000	0,66	-0,568850	
37,950000	0,66	-0,567940	
37,961000	0,66	-0,575880	
37,972000	0,66	-0,582030	
37,983000	0,66	-0,585110	
37,994000	0,66	-0,581580	
38,005000	0,66	-0,573330	
38,016000	0,66	-0,571650	
38,027000	0,66	-0,576270	
38,038000	0,66	-0,584900	
38,049000	0,66	-0,593860	
38,060000	0,66	-0,598040	
38,071000	0,66	-0,590870	
38,082000	0,66	-0,580120	
38,093000	0,66	-0,582860	
38,104000	0,66	-0,584730	
38,115000	0,66	-0,576780	
38,126000	0,66	-0,568340	
38,137000	0,66	-0,575810	
38,148000	0,66	-0,587340	
38,159000	0,66	-0,588270	
38,170000	0,66	-0,591620	
38,181000	0,66	-0,603800	
38,192000	0,66	-0,597910	
38,203000	0,66	-0,586320	
38,214000	0,66	-0,588890	
38,225000	0,66	-0,587120	
38,236000	0,66	-0,581350	
38,247000	0,66	-0,594550	
38,258000	0,66	-0,602480	
38,269000	0,66	-0,596490	
38,280000	0,66	-0,597030	
38,291000	0,66	-0,600430	
38,302000	0,66	-0,603130	
38,313000	0,66	-0,598940	
38,324000	0,66	-0,605740	
38,335000	0,66	-0,608530	
38,346000	0,66	-0,593150	
38,357000	0,66	-0,585850	
38,368000	0,66	-0,591720	
38,379000	0,66	-0,596680	
38,390000	0,66	-0,596280	
38,401000	0,66	-0,585540	
38,412000	0,66	-0,580690	
38,423000	0,66	-0,591630	
38,434000	0,66	-0,594120	
38,445000	0,66	-0,587720	
38,456000	0,66	-0,590790	
38,467000	0,66	-0,585380	
38,478000	0,66	-0,583250	
38,489000	0,66	-0,594480	
38,500000	0,66	-0,595830	
38,511000	0,66	-0,594630	
38,522000	0,66	-0,594940	
38,533000	0,66	-0,594930	
38,544000	0,66	-0,591060	
38,555000	0,66	-0,592180	
38,566000	0,66	-0,592800	
38,577000	0,66	-0,589410	
38,588000	0,66	-0,589280	
38,599000	0,66	-0,586510	
38,610000	0,66	-0,586140	
38,621000	0,66	-0,580330	
38,632000	0,66	-0,580000	
38,643000	0,66	-0,584070	
38,654000	0,66	-0,585850	
38,665000	0,66	-0,590830	
38,676000	0,66	-0,592380	
38,687000	0,66	-0,593380	
38,698000	0,66	-0,600690	
38,709000	0,66	-0,600820	
38,720000	0,66	-0,595090	
38,731000	0,66	-0,597410	
38,742000	0,66	-0,598090	
38,753000	0,66	-0,592020	
38,764000	0,66	-0,587110	
38,775000	0,66	-0,583260	
38,786000	0,66	-0,582030	
38,797000	0,66	-0,585360	
38,808000	0,66	-0,594420	
38,819000	0,66	-0,596510	
38,830000	0,66	-0,580080	
38,841000	0,66	-0,569180	
38,852000	0,66	-0,563850	
38,863000	0,66	-0,566020	
38,874000	0,66	-0,580730	
38,885000	0,66	-0,580500	
38,896000	0,66	-0,578170	
38,907000	0,66	-0,583710	
38,918000	0,66	-0,581950	
38,929000	0,66	-0,584040	
38,940000	0,66	-0,586320	
38,951000	0,66	-0,584510	
38,962000	0,66	-0,590200	
38,973000	0,66	-0,592640	
38,984000	0,66	-0,582280	
38,995000	0,66	-0,572350	
39,006000	0,66	-0,575040	
39,017000	0,66	-0,580330	
39,028000	0,66	-0,584630	
39,039000	0,66	-0,583900	
39,050000	0,66	-0,581170	
39,061000	0,66	-0,588420	
39,072000	0,66	-0,589110	
39,083000	0,66	-0,583880	
39,094000	0,66	-0,585680	
39,105000	0,66	-0,596400	
39,116000	0,66	-0,580400	
39,127000	0,66	-0,584960	
39,138000	0,66	-0,589190	
39,149000	0,66	-0,586030	
39,160000	0,66	-0,588390	
39,171000	0,66	-0,581890	
39,182000	0,66	-0,582660	
39,193000	0,66	-0,591140	
39,204000	0,66	-0,597590	
39,215000	0,66	-0,599110	
39,226000	0,66	-0,582030	
39,237000	0,66	-0,583840	
39,248000	0,66	-0,594400	
39,259000	0,66	-0,603930	
39,270000	0,66	-0,614830	
39,281000	0,66	-0,611170	
39,292000	0,66	-0,600050	
39,303000	0,66	-0,591770	
39,314000	0,66	-0,604710	
39,325000	0,66	-0,606890	
39,336000	0,66	-0,602490	
39,347000	0,66	-0,589510	
39,358000	0,66	-0,587670	
39,369000	0,66	-0,593990	
39,380000	0,66	-0,593120	
39,391000	0,66	-0,589320	
39,402000	0,66	-0,585200	
39,413000	0,66	-0,588900	
39,424000	0,66	-0,597970	
39,435000	0,66	-0,602980	
39,446000	0,66	-0,600660	
39,457000	0,66	-0,597450	
39,468000	0,66	-0,593250	
39,479000	0,66	-0,584290	
39,490000	0,66	-0,586630	
39,501000	0,66	-0,596520	
39,512000	0,66	-0,601550	
39,523000	0,66	-0,604840	
39,534000	0,66	-0,609090	
39,545000	0,66	-0,607810	
39,556000	0,66	-0,611780	
39,567000	0,66	-0,611520	
39,578000	0,66	-0,604480	
39,589000	0,66	-0,601590	
39,600000	0,66	-0,589120	
39,611000	0,66	-0,592410	
39,622000	0,66	-0,599560	
39,633000	0,66	-0,603890	
39,644000	0,66	-0,602230	
39,655000	0,66	-0,604660	
39,666000	0,66	-0,600090	
39,677000	0,66	-0,593480	
39,688000	0,66	-0,596800	
39,699000	0,66	-0,588260	
39,710000	0,66	-0,596360	
39,721000	0,66	-0,604570	
39,732000	0,66	-0,611480	
39,743000	0,66	-0,592450	
39,754000	0,66	-0,602130	
39,765000	0,66	-0,603380	
39,776000	0,66	-0,588310	
39,787000	0,66	-0,576250	
39,798000	0,66	-0,590330	
39,809000	0,66	-0,602710	
39,820000	0,66	-0,606410	
39,831000	0,66	-0,612400	
39,842000	0,66	-0,605520	
39,853000	0,66	-0,610740	
39,864000	0,66	-0,613050	
39,875000	0,66	-0,612970	
39,886000	0,66	-0,607760	
39,897000	0,66	-0,610250	
39,908000	0,66	-0,614270	
39,919000	0,66	-0,613600	
39,930000	0,66	-0,610060	
39,941000	0,66	-0,601280	
39,952000	0,66	-0,601450	
39,963000	0,66	-0,599070	
39,974000	0,66	-0,589190	
39,985000	0,66	-0,586250	
39,996000	0,66	-0,582560	
40,007000	0,66	-0,571790	
