Filepath	C:\Chromel\data\Analytik\Walther group\Guido\mechanosense\GCR268.SEQ\UV_VIS_2.CHL\296.acd
Channel	UV_VIS_2

Sample Information:
Datasource	PC-8NN4M2J_local
Sequence	Analytik\Walther group\Guido\mechanosense\GCR268.SEQ
Sample	200717-1
Sample Number	2
Sample Position	RA1
Sample ID	296
Comment	milliQ background 100uL
QNT method	default
PGM file	single-component-3 40min 60C 0,4mLmin
Type	unknown
Status	finished
Date	17.07.2020
Time	08:58:11
Injection Volume (µl)	100,00
Dilution Factor	1,000000
Amount	1,000000
Weight	1,000000

Raw Data Header Information:
Time Min. (min)	0,000
Time Max. (min)	40,007
Raw-Time Min. (min)	0,000
Raw-Time Max. (min)	40,007
Data Points	3638
Detector	VWD3000.dll
Preferred Read Mode	Unknown
Write Mode	Unknown
Data System	Chromeleon
Version High	06
Version Low	80
Build No.	3160
File Format Version	11
Generation Type	8
File ID	239054205
File Status	16
GUID	8f70368e-c7fa-11ea-b409-00184d71f7da
Signal Factor	0,000010
Signal Dimension	mAU
Signal Unit	Absorbance
Signal Min.	-1,93803
Signal Max.	1,204650
Channel Name	UV_VIS_2
Driver Name	VWD-3x00 Detector
Min. Step	66
Max. Step	66
Average Step	66

Signal Parameter Information:
Signal Info	WVL:556 nm
Wavelength	556 nm
	 




















Raw Data:
Time(min)	Step(sec)	Value(mAU)
0,000000	0,00	-0,367360	
0,011000	0,66	-0,366140	
0,022000	0,66	-0,353160	
0,033000	0,66	-0,342300	
0,044000	0,66	-0,336590	
0,055000	0,66	-0,340820	
0,066000	0,66	-0,332980	
0,077000	0,66	-0,338160	
0,088000	0,66	-0,354620	
0,099000	0,66	-0,347490	
0,110000	0,66	-0,337320	
0,121000	0,66	-0,347210	
0,132000	0,66	-0,350330	
0,143000	0,66	-0,348790	
0,154000	0,66	-0,354630	
0,165000	0,66	-0,350270	
0,176000	0,66	-0,345670	
0,187000	0,66	-0,352850	
0,198000	0,66	-0,355810	
0,209000	0,66	-0,357630	
0,220000	0,66	-0,356930	
0,231000	0,66	-0,358680	
0,242000	0,66	-0,357310	
0,253000	0,66	-0,369990	
0,264000	0,66	-0,393020	
0,275000	0,66	-0,387710	
0,286000	0,66	-0,371340	
0,297000	0,66	-0,350020	
0,308000	0,66	-0,346400	
0,319000	0,66	-0,347580	
0,330000	0,66	-0,340170	
0,341000	0,66	-0,345750	
0,352000	0,66	-0,351520	
0,363000	0,66	-0,342970	
0,374000	0,66	-0,351110	
0,385000	0,66	-0,364690	
0,396000	0,66	-0,361100	
0,407000	0,66	-0,355070	
0,418000	0,66	-0,352330	
0,429000	0,66	-0,360480	
0,440000	0,66	-0,369330	
0,451000	0,66	-0,365230	
0,462000	0,66	-0,365580	
0,473000	0,66	-0,367520	
0,484000	0,66	-0,353970	
0,495000	0,66	-0,354320	
0,506000	0,66	-0,358240	
0,517000	0,66	-0,361330	
0,528000	0,66	-0,344710	
0,539000	0,66	-0,334750	
0,550000	0,66	-0,334690	
0,561000	0,66	-0,337330	
0,572000	0,66	-0,351760	
0,583000	0,66	-0,344720	
0,594000	0,66	-0,335290	
0,605000	0,66	-0,339030	
0,616000	0,66	-0,344050	
0,627000	0,66	-0,337050	
0,638000	0,66	-0,337420	
0,649000	0,66	-0,341990	
0,660000	0,66	-0,344230	
0,671000	0,66	-0,350250	
0,682000	0,66	-0,344470	
0,693000	0,66	-0,339520	
0,704000	0,66	-0,348930	
0,715000	0,66	-0,345580	
0,726000	0,66	-0,358220	
0,737000	0,66	-0,380000	
0,748000	0,66	-0,377030	
0,759000	0,66	-0,364060	
0,770000	0,66	-0,355160	
0,781000	0,66	-0,351600	
0,792000	0,66	-0,359470	
0,803000	0,66	-0,356960	
0,814000	0,66	-0,345240	
0,825000	0,66	-0,342090	
0,836000	0,66	-0,338690	
0,847000	0,66	-0,343860	
0,858000	0,66	-0,342280	
0,869000	0,66	-0,350090	
0,880000	0,66	-0,358730	
0,891000	0,66	-0,351130	
0,902000	0,66	-0,353060	
0,913000	0,66	-0,356010	
0,924000	0,66	-0,356370	
0,935000	0,66	-0,363240	
0,946000	0,66	-0,340590	
0,957000	0,66	-0,335490	
0,968000	0,66	-0,340110	
0,979000	0,66	-0,348730	
0,990000	0,66	-0,359970	
1,001000	0,66	-0,373670	
1,012000	0,66	-0,359530	
1,023000	0,66	-0,331050	
1,034000	0,66	-0,332210	
1,045000	0,66	-0,351910	
1,056000	0,66	-0,358410	
1,067000	0,66	-0,352900	
1,078000	0,66	-0,349600	
1,089000	0,66	-0,348810	
1,100000	0,66	-0,351170	
1,111000	0,66	-0,365690	
1,122000	0,66	-0,377090	
1,133000	0,66	-0,365790	
1,144000	0,66	-0,356980	
1,155000	0,66	-0,366570	
1,166000	0,66	-0,374910	
1,177000	0,66	-0,378890	
1,188000	0,66	-0,376720	
1,199000	0,66	-0,368400	
1,210000	0,66	-0,377180	
1,221000	0,66	-0,381670	
1,232000	0,66	-0,384100	
1,243000	0,66	-0,363610	
1,254000	0,66	-0,358360	
1,265000	0,66	-0,355390	
1,276000	0,66	-0,349330	
1,287000	0,66	-0,315120	
1,298000	0,66	-0,227960	
1,309000	0,66	-0,080700	
1,320000	0,66	0,087530	
1,331000	0,66	0,268060	
1,342000	0,66	0,475870	
1,353000	0,66	0,681280	
1,364000	0,66	0,857730	
1,375000	0,66	1,016940	
1,386000	0,66	1,130810	
1,397000	0,66	1,204650	
1,408000	0,66	1,203220	
1,419000	0,66	1,178250	
1,430000	0,66	1,105690	
1,441000	0,66	0,994330	
1,452000	0,66	0,860410	
1,463000	0,66	0,702780	
1,474000	0,66	0,540850	
1,485000	0,66	0,375900	
1,496000	0,66	0,220060	
1,507000	0,66	0,067260	
1,518000	0,66	-0,073210	
1,529000	0,66	-0,199040	
1,540000	0,66	-0,306960	
1,551000	0,66	-0,415460	
1,562000	0,66	-0,537030	
1,573000	0,66	-0,667870	
1,584000	0,66	-0,777230	
1,595000	0,66	-0,869220	
1,606000	0,66	-0,964840	
1,617000	0,66	-1,036880	
1,628000	0,66	-1,081240	
1,639000	0,66	-1,135300	
1,650000	0,66	-1,181000	
1,661000	0,66	-1,207920	
1,672000	0,66	-1,195320	
1,683000	0,66	-1,165560	
1,694000	0,66	-1,122940	
1,705000	0,66	-1,077890	
1,716000	0,66	-0,946800	
1,727000	0,66	-0,691220	
1,738000	0,66	-0,588970	
1,749000	0,66	-0,622930	
1,760000	0,66	-0,615450	
1,771000	0,66	-0,578410	
1,782000	0,66	-0,526810	
1,793000	0,66	-0,467440	
1,804000	0,66	-0,415930	
1,815000	0,66	-0,384790	
1,826000	0,66	-0,353040	
1,837000	0,66	-0,313560	
1,848000	0,66	-0,267930	
1,859000	0,66	-0,244910	
1,870000	0,66	-0,220920	
1,881000	0,66	-0,191310	
1,892000	0,66	-0,179080	
1,903000	0,66	-0,161020	
1,914000	0,66	-0,133690	
1,925000	0,66	-0,120930	
1,936000	0,66	-0,105020	
1,947000	0,66	-0,086360	
1,958000	0,66	-0,076070	
1,969000	0,66	-0,073200	
1,980000	0,66	-0,076130	
1,991000	0,66	-0,071230	
2,002000	0,66	-0,077600	
2,013000	0,66	-0,071980	
2,024000	0,66	-0,056310	
2,035000	0,66	-0,048950	
2,046000	0,66	-0,043970	
2,057000	0,66	-0,047540	
2,068000	0,66	-0,043420	
2,079000	0,66	-0,032200	
2,090000	0,66	-0,041330	
2,101000	0,66	-0,062330	
2,112000	0,66	-0,050670	
2,123000	0,66	-0,061380	
2,134000	0,66	-0,056600	
2,145000	0,66	-0,058750	
2,156000	0,66	-0,071520	
2,167000	0,66	-0,104460	
2,178000	0,66	-0,241910	
2,189000	0,66	-0,604800	
2,200000	0,66	-1,100720	
2,211000	0,66	-1,560380	
2,222000	0,66	-1,839690	
2,233000	0,66	-1,938030	
2,244000	0,66	-1,885970	
2,255000	0,66	-1,746220	
2,266000	0,66	-1,562980	
2,277000	0,66	-1,367610	
2,288000	0,66	-1,178540	
2,299000	0,66	-1,014170	
2,310000	0,66	-0,867840	
2,321000	0,66	-0,742760	
2,332000	0,66	-0,666350	
2,343000	0,66	-0,588780	
2,354000	0,66	-0,517750	
2,365000	0,66	-0,459420	
2,376000	0,66	-0,428340	
2,387000	0,66	-0,422770	
2,398000	0,66	-0,414840	
2,409000	0,66	-0,396730	
2,420000	0,66	-0,381810	
2,431000	0,66	-0,378020	
2,442000	0,66	-0,371820	
2,453000	0,66	-0,360780	
2,464000	0,66	-0,350890	
2,475000	0,66	-0,346430	
2,486000	0,66	-0,345580	
2,497000	0,66	-0,339180	
2,508000	0,66	-0,328360	
2,519000	0,66	-0,335370	
2,530000	0,66	-0,347590	
2,541000	0,66	-0,332620	
2,552000	0,66	-0,326830	
2,563000	0,66	-0,327100	
2,574000	0,66	-0,323150	
2,585000	0,66	-0,324040	
2,596000	0,66	-0,321680	
2,607000	0,66	-0,311300	
2,618000	0,66	-0,306100	
2,629000	0,66	-0,313890	
2,640000	0,66	-0,321990	
2,651000	0,66	-0,316720	
2,662000	0,66	-0,319060	
2,673000	0,66	-0,327500	
2,684000	0,66	-0,353920	
2,695000	0,66	-0,355320	
2,706000	0,66	-0,338210	
2,717000	0,66	-0,314920	
2,728000	0,66	-0,312820	
2,739000	0,66	-0,313840	
2,750000	0,66	-0,310440	
2,761000	0,66	-0,310770	
2,772000	0,66	-0,319280	
2,783000	0,66	-0,335430	
2,794000	0,66	-0,332050	
2,805000	0,66	-0,322150	
2,816000	0,66	-0,312210	
2,827000	0,66	-0,330800	
2,838000	0,66	-0,345930	
2,849000	0,66	-0,355470	
2,860000	0,66	-0,362980	
2,871000	0,66	-0,362660	
2,882000	0,66	-0,355580	
2,893000	0,66	-0,348840	
2,904000	0,66	-0,352380	
2,915000	0,66	-0,336470	
2,926000	0,66	-0,339300	
2,937000	0,66	-0,349660	
2,948000	0,66	-0,339900	
2,959000	0,66	-0,336040	
2,970000	0,66	-0,325830	
2,981000	0,66	-0,331400	
2,992000	0,66	-0,319890	
3,003000	0,66	-0,323250	
3,014000	0,66	-0,330430	
3,025000	0,66	-0,329000	
3,036000	0,66	-0,335800	
3,047000	0,66	-0,329760	
3,058000	0,66	-0,334570	
3,069000	0,66	-0,336450	
3,080000	0,66	-0,336710	
3,091000	0,66	-0,348870	
3,102000	0,66	-0,364020	
3,113000	0,66	-0,361730	
3,124000	0,66	-0,342160	
3,135000	0,66	-0,338380	
3,146000	0,66	-0,341890	
3,157000	0,66	-0,340360	
3,168000	0,66	-0,340420	
3,179000	0,66	-0,339890	
3,190000	0,66	-0,347620	
3,201000	0,66	-0,351550	
3,212000	0,66	-0,357140	
3,223000	0,66	-0,361220	
3,234000	0,66	-0,333490	
3,245000	0,66	-0,313890	
3,256000	0,66	-0,325020	
3,267000	0,66	-0,349020	
3,278000	0,66	-0,354260	
3,289000	0,66	-0,356670	
3,300000	0,66	-0,356600	
3,311000	0,66	-0,361340	
3,322000	0,66	-0,353720	
3,333000	0,66	-0,347780	
3,344000	0,66	-0,339160	
3,355000	0,66	-0,340390	
3,366000	0,66	-0,332450	
3,377000	0,66	-0,315360	
3,388000	0,66	-0,315100	
3,399000	0,66	-0,303010	
3,410000	0,66	-0,306880	
3,421000	0,66	-0,306940	
3,432000	0,66	-0,307910	
3,443000	0,66	-0,320010	
3,454000	0,66	-0,351260	
3,465000	0,66	-0,347920	
3,476000	0,66	-0,346540	
3,487000	0,66	-0,320030	
3,498000	0,66	-0,307260	
3,509000	0,66	-0,319130	
3,520000	0,66	-0,334330	
3,531000	0,66	-0,355020	
3,542000	0,66	-0,341790	
3,553000	0,66	-0,349070	
3,564000	0,66	-0,354690	
3,575000	0,66	-0,352460	
3,586000	0,66	-0,351370	
3,597000	0,66	-0,358100	
3,608000	0,66	-0,355370	
3,619000	0,66	-0,348200	
3,630000	0,66	-0,339590	
3,641000	0,66	-0,322070	
3,652000	0,66	-0,325930	
3,663000	0,66	-0,330520	
3,674000	0,66	-0,325230	
3,685000	0,66	-0,322710	
3,696000	0,66	-0,319580	
3,707000	0,66	-0,306880	
3,718000	0,66	-0,293550	
3,729000	0,66	-0,308550	
3,740000	0,66	-0,320000	
3,751000	0,66	-0,329940	
3,762000	0,66	-0,327740	
3,773000	0,66	-0,319670	
3,784000	0,66	-0,324260	
3,795000	0,66	-0,347300	
3,806000	0,66	-0,356770	
3,817000	0,66	-0,348880	
3,828000	0,66	-0,360660	
3,839000	0,66	-0,361390	
3,850000	0,66	-0,338490	
3,861000	0,66	-0,334310	
3,872000	0,66	-0,340450	
3,883000	0,66	-0,340960	
3,894000	0,66	-0,341680	
3,905000	0,66	-0,339180	
3,916000	0,66	-0,336430	
3,927000	0,66	-0,334910	
3,938000	0,66	-0,329930	
3,949000	0,66	-0,320700	
3,960000	0,66	-0,314700	
3,971000	0,66	-0,314540	
3,982000	0,66	-0,322250	
3,993000	0,66	-0,334370	
4,004000	0,66	-0,350940	
4,015000	0,66	-0,357700	
4,026000	0,66	-0,352820	
4,037000	0,66	-0,345560	
4,048000	0,66	-0,337890	
4,059000	0,66	-0,334150	
4,070000	0,66	-0,312390	
4,081000	0,66	-0,301820	
4,092000	0,66	-0,306030	
4,103000	0,66	-0,309500	
4,114000	0,66	-0,308450	
4,125000	0,66	-0,304300	
4,136000	0,66	-0,303570	
4,147000	0,66	-0,324490	
4,158000	0,66	-0,341920	
4,169000	0,66	-0,342980	
4,180000	0,66	-0,338200	
4,191000	0,66	-0,328140	
4,202000	0,66	-0,337150	
4,213000	0,66	-0,332180	
4,224000	0,66	-0,330040	
4,235000	0,66	-0,334360	
4,246000	0,66	-0,322120	
4,257000	0,66	-0,317840	
4,268000	0,66	-0,321610	
4,279000	0,66	-0,310120	
4,290000	0,66	-0,315190	
4,301000	0,66	-0,333490	
4,312000	0,66	-0,319830	
4,323000	0,66	-0,316010	
4,334000	0,66	-0,309270	
4,345000	0,66	-0,324140	
4,356000	0,66	-0,333970	
4,367000	0,66	-0,336680	
4,378000	0,66	-0,334660	
4,389000	0,66	-0,322380	
4,400000	0,66	-0,322790	
4,411000	0,66	-0,340210	
4,422000	0,66	-0,337310	
4,433000	0,66	-0,330620	
4,444000	0,66	-0,337270	
4,455000	0,66	-0,338770	
4,466000	0,66	-0,327800	
4,477000	0,66	-0,304720	
4,488000	0,66	-0,288730	
4,499000	0,66	-0,298440	
4,510000	0,66	-0,327180	
4,521000	0,66	-0,342470	
4,532000	0,66	-0,332830	
4,543000	0,66	-0,311860	
4,554000	0,66	-0,298330	
4,565000	0,66	-0,300330	
4,576000	0,66	-0,320830	
4,587000	0,66	-0,342700	
4,598000	0,66	-0,341820	
4,609000	0,66	-0,335690	
4,620000	0,66	-0,336690	
4,631000	0,66	-0,346270	
4,642000	0,66	-0,353570	
4,653000	0,66	-0,348340	
4,664000	0,66	-0,355030	
4,675000	0,66	-0,352070	
4,686000	0,66	-0,342620	
4,697000	0,66	-0,347540	
4,708000	0,66	-0,349610	
4,719000	0,66	-0,354450	
4,730000	0,66	-0,351940	
4,741000	0,66	-0,339380	
4,752000	0,66	-0,342660	
4,763000	0,66	-0,354930	
4,774000	0,66	-0,342860	
4,785000	0,66	-0,325180	
4,796000	0,66	-0,319740	
4,807000	0,66	-0,339890	
4,818000	0,66	-0,344020	
4,829000	0,66	-0,332760	
4,840000	0,66	-0,338070	
4,851000	0,66	-0,332190	
4,862000	0,66	-0,322060	
4,873000	0,66	-0,332600	
4,884000	0,66	-0,324670	
4,895000	0,66	-0,326170	
4,906000	0,66	-0,330180	
4,917000	0,66	-0,322670	
4,928000	0,66	-0,331890	
4,939000	0,66	-0,340070	
4,950000	0,66	-0,346810	
4,961000	0,66	-0,354180	
4,972000	0,66	-0,349040	
4,983000	0,66	-0,330380	
4,994000	0,66	-0,338560	
5,005000	0,66	-0,335860	
5,016000	0,66	-0,333410	
5,027000	0,66	-0,349080	
5,038000	0,66	-0,362300	
5,049000	0,66	-0,360340	
5,060000	0,66	-0,349860	
5,071000	0,66	-0,349050	
5,082000	0,66	-0,358880	
5,093000	0,66	-0,358170	
5,104000	0,66	-0,369730	
5,115000	0,66	-0,363090	
5,126000	0,66	-0,348860	
5,137000	0,66	-0,335450	
5,148000	0,66	-0,318850	
5,159000	0,66	-0,320640	
5,170000	0,66	-0,330270	
5,181000	0,66	-0,337820	
5,192000	0,66	-0,345530	
5,203000	0,66	-0,347140	
5,214000	0,66	-0,352550	
5,225000	0,66	-0,356030	
5,236000	0,66	-0,357630	
5,247000	0,66	-0,370850	
5,258000	0,66	-0,372170	
5,269000	0,66	-0,355630	
5,280000	0,66	-0,342030	
5,291000	0,66	-0,334560	
5,302000	0,66	-0,342080	
5,313000	0,66	-0,345620	
5,324000	0,66	-0,333610	
5,335000	0,66	-0,333860	
5,346000	0,66	-0,338120	
5,357000	0,66	-0,341220	
5,368000	0,66	-0,330970	
5,379000	0,66	-0,325450	
5,390000	0,66	-0,323890	
5,401000	0,66	-0,342990	
5,412000	0,66	-0,366350	
5,423000	0,66	-0,383120	
5,434000	0,66	-0,383050	
5,445000	0,66	-0,365060	
5,456000	0,66	-0,356980	
5,467000	0,66	-0,361760	
5,478000	0,66	-0,349930	
5,489000	0,66	-0,353300	
5,500000	0,66	-0,358720	
5,511000	0,66	-0,355880	
5,522000	0,66	-0,349250	
5,533000	0,66	-0,347740	
5,544000	0,66	-0,362880	
5,555000	0,66	-0,363890	
5,566000	0,66	-0,354480	
5,577000	0,66	-0,349230	
5,588000	0,66	-0,348880	
5,599000	0,66	-0,333380	
5,610000	0,66	-0,328740	
5,621000	0,66	-0,340580	
5,632000	0,66	-0,340440	
5,643000	0,66	-0,356690	
5,654000	0,66	-0,358770	
5,665000	0,66	-0,352410	
5,676000	0,66	-0,362640	
5,687000	0,66	-0,354670	
5,698000	0,66	-0,354510	
5,709000	0,66	-0,359130	
5,720000	0,66	-0,364640	
5,731000	0,66	-0,368960	
5,742000	0,66	-0,348450	
5,753000	0,66	-0,353330	
5,764000	0,66	-0,364180	
5,775000	0,66	-0,375590	
5,786000	0,66	-0,382770	
5,797000	0,66	-0,376210	
5,808000	0,66	-0,372840	
5,819000	0,66	-0,365470	
5,830000	0,66	-0,362980	
5,841000	0,66	-0,363040	
5,852000	0,66	-0,359230	
5,863000	0,66	-0,365990	
5,874000	0,66	-0,362490	
5,885000	0,66	-0,352800	
5,896000	0,66	-0,351400	
5,907000	0,66	-0,352540	
5,918000	0,66	-0,350620	
5,929000	0,66	-0,351130	
5,940000	0,66	-0,356110	
5,951000	0,66	-0,358240	
5,962000	0,66	-0,353090	
5,973000	0,66	-0,354260	
5,984000	0,66	-0,363500	
5,995000	0,66	-0,362800	
6,006000	0,66	-0,364890	
6,017000	0,66	-0,374350	
6,028000	0,66	-0,378830	
6,039000	0,66	-0,381200	
6,050000	0,66	-0,379050	
6,061000	0,66	-0,385160	
6,072000	0,66	-0,393970	
6,083000	0,66	-0,392920	
6,094000	0,66	-0,398960	
6,105000	0,66	-0,393890	
6,116000	0,66	-0,395400	
6,127000	0,66	-0,380600	
6,138000	0,66	-0,377430	
6,149000	0,66	-0,376280	
6,160000	0,66	-0,365340	
6,171000	0,66	-0,388950	
6,182000	0,66	-0,399090	
6,193000	0,66	-0,394930	
6,204000	0,66	-0,383430	
6,215000	0,66	-0,381130	
6,226000	0,66	-0,378570	
6,237000	0,66	-0,384910	
6,248000	0,66	-0,370720	
6,259000	0,66	-0,374290	
6,270000	0,66	-0,380260	
6,281000	0,66	-0,378330	
6,292000	0,66	-0,377160	
6,303000	0,66	-0,363900	
6,314000	0,66	-0,371220	
6,325000	0,66	-0,371900	
6,336000	0,66	-0,379470	
6,347000	0,66	-0,392130	
6,358000	0,66	-0,394060	
6,369000	0,66	-0,382970	
6,380000	0,66	-0,384260	
6,391000	0,66	-0,391400	
6,402000	0,66	-0,391960	
6,413000	0,66	-0,374600	
6,424000	0,66	-0,360440	
6,435000	0,66	-0,379210	
6,446000	0,66	-0,390400	
6,457000	0,66	-0,393890	
6,468000	0,66	-0,386890	
6,479000	0,66	-0,385570	
6,490000	0,66	-0,384300	
6,501000	0,66	-0,391980	
6,512000	0,66	-0,391060	
6,523000	0,66	-0,384920	
6,534000	0,66	-0,380050	
6,545000	0,66	-0,374720	
6,556000	0,66	-0,370810	
6,567000	0,66	-0,372710	
6,578000	0,66	-0,378480	
6,589000	0,66	-0,393860	
6,600000	0,66	-0,408410	
6,611000	0,66	-0,406600	
6,622000	0,66	-0,388950	
6,633000	0,66	-0,383430	
6,644000	0,66	-0,401070	
6,655000	0,66	-0,419090	
6,666000	0,66	-0,420910	
6,677000	0,66	-0,418560	
6,688000	0,66	-0,418620	
6,699000	0,66	-0,402890	
6,710000	0,66	-0,388940	
6,721000	0,66	-0,392430	
6,732000	0,66	-0,405540	
6,743000	0,66	-0,424340	
6,754000	0,66	-0,433940	
6,765000	0,66	-0,416350	
6,776000	0,66	-0,415110	
6,787000	0,66	-0,413320	
6,798000	0,66	-0,418290	
6,809000	0,66	-0,413140	
6,820000	0,66	-0,392030	
6,831000	0,66	-0,395080	
6,842000	0,66	-0,411160	
6,853000	0,66	-0,424230	
6,864000	0,66	-0,408540	
6,875000	0,66	-0,404570	
6,886000	0,66	-0,420900	
6,897000	0,66	-0,417130	
6,908000	0,66	-0,413890	
6,919000	0,66	-0,399870	
6,930000	0,66	-0,378420	
6,941000	0,66	-0,387990	
6,952000	0,66	-0,395200	
6,963000	0,66	-0,398600	
6,974000	0,66	-0,394380	
6,985000	0,66	-0,389560	
6,996000	0,66	-0,399760	
7,007000	0,66	-0,419080	
7,018000	0,66	-0,405040	
7,029000	0,66	-0,402550	
7,040000	0,66	-0,406670	
7,051000	0,66	-0,412480	
7,062000	0,66	-0,407340	
7,073000	0,66	-0,395220	
7,084000	0,66	-0,403010	
7,095000	0,66	-0,393330	
7,106000	0,66	-0,381970	
7,117000	0,66	-0,378700	
7,128000	0,66	-0,396180	
7,139000	0,66	-0,404040	
7,150000	0,66	-0,411350	
7,161000	0,66	-0,397310	
7,172000	0,66	-0,395870	
7,183000	0,66	-0,379080	
7,194000	0,66	-0,369140	
7,205000	0,66	-0,368590	
7,216000	0,66	-0,372690	
7,227000	0,66	-0,390960	
7,238000	0,66	-0,403330	
7,249000	0,66	-0,398520	
7,260000	0,66	-0,399750	
7,271000	0,66	-0,420400	
7,282000	0,66	-0,425190	
7,293000	0,66	-0,413380	
7,304000	0,66	-0,397740	
7,315000	0,66	-0,387920	
7,326000	0,66	-0,386080	
7,337000	0,66	-0,392050	
7,348000	0,66	-0,404890	
7,359000	0,66	-0,414970	
7,370000	0,66	-0,408090	
7,381000	0,66	-0,393560	
7,392000	0,66	-0,394220	
7,403000	0,66	-0,402900	
7,414000	0,66	-0,410660	
7,425000	0,66	-0,416320	
7,436000	0,66	-0,425340	
7,447000	0,66	-0,420640	
7,458000	0,66	-0,407530	
7,469000	0,66	-0,402100	
7,480000	0,66	-0,388990	
7,491000	0,66	-0,382890	
7,502000	0,66	-0,382570	
7,513000	0,66	-0,409200	
7,524000	0,66	-0,428470	
7,535000	0,66	-0,416160	
7,546000	0,66	-0,408400	
7,557000	0,66	-0,395300	
7,568000	0,66	-0,400380	
7,579000	0,66	-0,410750	
7,590000	0,66	-0,425820	
7,601000	0,66	-0,419010	
7,612000	0,66	-0,416530	
7,623000	0,66	-0,416660	
7,634000	0,66	-0,412090	
7,645000	0,66	-0,387640	
7,656000	0,66	-0,375310	
7,667000	0,66	-0,380790	
7,678000	0,66	-0,393650	
7,689000	0,66	-0,393950	
7,700000	0,66	-0,395390	
7,711000	0,66	-0,399740	
7,722000	0,66	-0,392770	
7,733000	0,66	-0,389000	
7,744000	0,66	-0,386170	
7,755000	0,66	-0,405460	
7,766000	0,66	-0,400640	
7,777000	0,66	-0,389890	
7,788000	0,66	-0,400440	
7,799000	0,66	-0,397530	
7,810000	0,66	-0,411170	
7,821000	0,66	-0,407110	
7,832000	0,66	-0,397820	
7,843000	0,66	-0,381590	
7,854000	0,66	-0,389830	
7,865000	0,66	-0,403720	
7,876000	0,66	-0,412640	
7,887000	0,66	-0,415440	
7,898000	0,66	-0,407990	
7,909000	0,66	-0,408450	
7,920000	0,66	-0,410690	
7,931000	0,66	-0,392180	
7,942000	0,66	-0,378940	
7,953000	0,66	-0,377870	
7,964000	0,66	-0,389290	
7,975000	0,66	-0,400310	
7,986000	0,66	-0,399280	
7,997000	0,66	-0,398400	
8,008000	0,66	-0,403380	
8,019000	0,66	-0,412550	
8,030000	0,66	-0,417150	
8,041000	0,66	-0,409510	
8,052000	0,66	-0,400950	
8,063000	0,66	-0,393580	
8,074000	0,66	-0,385370	
8,085000	0,66	-0,392560	
8,096000	0,66	-0,398230	
8,107000	0,66	-0,390060	
8,118000	0,66	-0,398860	
8,129000	0,66	-0,412230	
8,140000	0,66	-0,406210	
8,151000	0,66	-0,382320	
8,162000	0,66	-0,367550	
8,173000	0,66	-0,372030	
8,184000	0,66	-0,371030	
8,195000	0,66	-0,390590	
8,206000	0,66	-0,402260	
8,217000	0,66	-0,402570	
8,228000	0,66	-0,405610	
8,239000	0,66	-0,403930	
8,250000	0,66	-0,402210	
8,261000	0,66	-0,405860	
8,272000	0,66	-0,403410	
8,283000	0,66	-0,405010	
8,294000	0,66	-0,412450	
8,305000	0,66	-0,414070	
8,316000	0,66	-0,417130	
8,327000	0,66	-0,410710	
8,338000	0,66	-0,395080	
8,349000	0,66	-0,403790	
8,360000	0,66	-0,400370	
8,371000	0,66	-0,393420	
8,382000	0,66	-0,386650	
8,393000	0,66	-0,386670	
8,404000	0,66	-0,388990	
8,415000	0,66	-0,388910	
8,426000	0,66	-0,400060	
8,437000	0,66	-0,393960	
8,448000	0,66	-0,391040	
8,459000	0,66	-0,397290	
8,470000	0,66	-0,405080	
8,481000	0,66	-0,395820	
8,492000	0,66	-0,394230	
8,503000	0,66	-0,404380	
8,514000	0,66	-0,395670	
8,525000	0,66	-0,376210	
8,536000	0,66	-0,372330	
8,547000	0,66	-0,387280	
8,558000	0,66	-0,387790	
8,569000	0,66	-0,398370	
8,580000	0,66	-0,401590	
8,591000	0,66	-0,389620	
8,602000	0,66	-0,396040	
8,613000	0,66	-0,395560	
8,624000	0,66	-0,381460	
8,635000	0,66	-0,372330	
8,646000	0,66	-0,383500	
8,657000	0,66	-0,399380	
8,668000	0,66	-0,405630	
8,679000	0,66	-0,397720	
8,690000	0,66	-0,407250	
8,701000	0,66	-0,416990	
8,712000	0,66	-0,403240	
8,723000	0,66	-0,387440	
8,734000	0,66	-0,373640	
8,745000	0,66	-0,374060	
8,756000	0,66	-0,381280	
8,767000	0,66	-0,385930	
8,778000	0,66	-0,400030	
8,789000	0,66	-0,405560	
8,800000	0,66	-0,407770	
8,811000	0,66	-0,403690	
8,822000	0,66	-0,398190	
8,833000	0,66	-0,404600	
8,844000	0,66	-0,396490	
8,855000	0,66	-0,401700	
8,866000	0,66	-0,413740	
8,877000	0,66	-0,419200	
8,888000	0,66	-0,417820	
8,899000	0,66	-0,406150	
8,910000	0,66	-0,400430	
8,921000	0,66	-0,402390	
8,932000	0,66	-0,410490	
8,943000	0,66	-0,416740	
8,954000	0,66	-0,423550	
8,965000	0,66	-0,426110	
8,976000	0,66	-0,427200	
8,987000	0,66	-0,431930	
8,998000	0,66	-0,417440	
9,009000	0,66	-0,407390	
9,020000	0,66	-0,410550	
9,031000	0,66	-0,429360	
9,042000	0,66	-0,433710	
9,053000	0,66	-0,432580	
9,064000	0,66	-0,426730	
9,075000	0,66	-0,425980	
9,086000	0,66	-0,420530	
9,097000	0,66	-0,420960	
9,108000	0,66	-0,429810	
9,119000	0,66	-0,423620	
9,130000	0,66	-0,417990	
9,141000	0,66	-0,426990	
9,152000	0,66	-0,424170	
9,163000	0,66	-0,413180	
9,174000	0,66	-0,426830	
9,185000	0,66	-0,429840	
9,196000	0,66	-0,428530	
9,207000	0,66	-0,411890	
9,218000	0,66	-0,401280	
9,229000	0,66	-0,408500	
9,240000	0,66	-0,415420	
9,251000	0,66	-0,418870	
9,262000	0,66	-0,424720	
9,273000	0,66	-0,440050	
9,284000	0,66	-0,438700	
9,295000	0,66	-0,416510	
9,306000	0,66	-0,405090	
9,317000	0,66	-0,416050	
9,328000	0,66	-0,430000	
9,339000	0,66	-0,431670	
9,350000	0,66	-0,418180	
9,361000	0,66	-0,403450	
9,372000	0,66	-0,398790	
9,383000	0,66	-0,405600	
9,394000	0,66	-0,421460	
9,405000	0,66	-0,427360	
9,416000	0,66	-0,414300	
9,427000	0,66	-0,401860	
9,438000	0,66	-0,397460	
9,449000	0,66	-0,396400	
9,460000	0,66	-0,391820	
9,471000	0,66	-0,388360	
9,482000	0,66	-0,392620	
9,493000	0,66	-0,395390	
9,504000	0,66	-0,398250	
9,515000	0,66	-0,406950	
9,526000	0,66	-0,422830	
9,537000	0,66	-0,420570	
9,548000	0,66	-0,414050	
9,559000	0,66	-0,419290	
9,570000	0,66	-0,423550	
9,581000	0,66	-0,426940	
9,592000	0,66	-0,431560	
9,603000	0,66	-0,434510	
9,614000	0,66	-0,422270	
9,625000	0,66	-0,411690	
9,636000	0,66	-0,416650	
9,647000	0,66	-0,426000	
9,658000	0,66	-0,416140	
9,669000	0,66	-0,392490	
9,680000	0,66	-0,388330	
9,691000	0,66	-0,388440	
9,702000	0,66	-0,401080	
9,713000	0,66	-0,417400	
9,724000	0,66	-0,413480	
9,735000	0,66	-0,403970	
9,746000	0,66	-0,402960	
9,757000	0,66	-0,414140	
9,768000	0,66	-0,403400	
9,779000	0,66	-0,409180	
9,790000	0,66	-0,397610	
9,801000	0,66	-0,393750	
9,812000	0,66	-0,407590	
9,823000	0,66	-0,420200	
9,834000	0,66	-0,412420	
9,845000	0,66	-0,391690	
9,856000	0,66	-0,372960	
9,867000	0,66	-0,374660	
9,878000	0,66	-0,372360	
9,889000	0,66	-0,388810	
9,900000	0,66	-0,386180	
9,911000	0,66	-0,398540	
9,922000	0,66	-0,394850	
9,933000	0,66	-0,401470	
9,944000	0,66	-0,391320	
9,955000	0,66	-0,398210	
9,966000	0,66	-0,400650	
9,977000	0,66	-0,395620	
9,988000	0,66	-0,387010	
9,999000	0,66	-0,400570	
10,010000	0,66	-0,421160	
10,021000	0,66	-0,434820	
10,032000	0,66	-0,447030	
10,043000	0,66	-0,440540	
10,054000	0,66	-0,435830	
10,065000	0,66	-0,442050	
10,076000	0,66	-0,437380	
10,087000	0,66	-0,425260	
10,098000	0,66	-0,421950	
10,109000	0,66	-0,421770	
10,120000	0,66	-0,415110	
10,131000	0,66	-0,424810	
10,142000	0,66	-0,436210	
10,153000	0,66	-0,437780	
10,164000	0,66	-0,434880	
10,175000	0,66	-0,422600	
10,186000	0,66	-0,424880	
10,197000	0,66	-0,426260	
10,208000	0,66	-0,423540	
10,219000	0,66	-0,419620	
10,230000	0,66	-0,413270	
10,241000	0,66	-0,414520	
10,252000	0,66	-0,421280	
10,263000	0,66	-0,417300	
10,274000	0,66	-0,414610	
10,285000	0,66	-0,411950	
10,296000	0,66	-0,412510	
10,307000	0,66	-0,396620	
10,318000	0,66	-0,392180	
10,329000	0,66	-0,399480	
10,340000	0,66	-0,399220	
10,351000	0,66	-0,407660	
10,362000	0,66	-0,397130	
10,373000	0,66	-0,394580	
10,384000	0,66	-0,396200	
10,395000	0,66	-0,402290	
10,406000	0,66	-0,412620	
10,417000	0,66	-0,404580	
10,428000	0,66	-0,408910	
10,439000	0,66	-0,405620	
10,450000	0,66	-0,421680	
10,461000	0,66	-0,424200	
10,472000	0,66	-0,404540	
10,483000	0,66	-0,389250	
10,494000	0,66	-0,394230	
10,505000	0,66	-0,396600	
10,516000	0,66	-0,402770	
10,527000	0,66	-0,399540	
10,538000	0,66	-0,390750	
10,549000	0,66	-0,400440	
10,560000	0,66	-0,396920	
10,571000	0,66	-0,404650	
10,582000	0,66	-0,413260	
10,593000	0,66	-0,408190	
10,604000	0,66	-0,394780	
10,615000	0,66	-0,401890	
10,626000	0,66	-0,409630	
10,637000	0,66	-0,408970	
10,648000	0,66	-0,409700	
10,659000	0,66	-0,401240	
10,670000	0,66	-0,400840	
10,681000	0,66	-0,409760	
10,692000	0,66	-0,407210	
10,703000	0,66	-0,416750	
10,714000	0,66	-0,413740	
10,725000	0,66	-0,394890	
10,736000	0,66	-0,394900	
10,747000	0,66	-0,395690	
10,758000	0,66	-0,386400	
10,769000	0,66	-0,379070	
10,780000	0,66	-0,383400	
10,791000	0,66	-0,400400	
10,802000	0,66	-0,414000	
10,813000	0,66	-0,421180	
10,824000	0,66	-0,405580	
10,835000	0,66	-0,384370	
10,846000	0,66	-0,385870	
10,857000	0,66	-0,392260	
10,868000	0,66	-0,385870	
10,879000	0,66	-0,368080	
10,890000	0,66	-0,366790	
10,901000	0,66	-0,385220	
10,912000	0,66	-0,399330	
10,923000	0,66	-0,399360	
10,934000	0,66	-0,404870	
10,945000	0,66	-0,403050	
10,956000	0,66	-0,389140	
10,967000	0,66	-0,381560	
10,978000	0,66	-0,381230	
10,989000	0,66	-0,382050	
11,000000	0,66	-0,380640	
11,011000	0,66	-0,382740	
11,022000	0,66	-0,389810	
11,033000	0,66	-0,396560	
11,044000	0,66	-0,376720	
11,055000	0,66	-0,371060	
11,066000	0,66	-0,360170	
11,077000	0,66	-0,366320	
11,088000	0,66	-0,376200	
11,099000	0,66	-0,380070	
11,110000	0,66	-0,387440	
11,121000	0,66	-0,403350	
11,132000	0,66	-0,406550	
11,143000	0,66	-0,398240	
11,154000	0,66	-0,392520	
11,165000	0,66	-0,403830	
11,176000	0,66	-0,405700	
11,187000	0,66	-0,397750	
11,198000	0,66	-0,412640	
11,209000	0,66	-0,438740	
11,220000	0,66	-0,421120	
11,231000	0,66	-0,404660	
11,242000	0,66	-0,409530	
11,253000	0,66	-0,391710	
11,264000	0,66	-0,384500	
11,275000	0,66	-0,391880	
11,286000	0,66	-0,401490	
11,297000	0,66	-0,397590	
11,308000	0,66	-0,389900	
11,319000	0,66	-0,382800	
11,330000	0,66	-0,388630	
11,341000	0,66	-0,400280	
11,352000	0,66	-0,406900	
11,363000	0,66	-0,399810	
11,374000	0,66	-0,396350	
11,385000	0,66	-0,401400	
11,396000	0,66	-0,394290	
11,407000	0,66	-0,395090	
11,418000	0,66	-0,398520	
11,429000	0,66	-0,383270	
11,440000	0,66	-0,369810	
11,451000	0,66	-0,364400	
11,462000	0,66	-0,365590	
11,473000	0,66	-0,374110	
11,484000	0,66	-0,383670	
11,495000	0,66	-0,384540	
11,506000	0,66	-0,396810	
11,517000	0,66	-0,400510	
11,528000	0,66	-0,391830	
11,539000	0,66	-0,384450	
11,550000	0,66	-0,379960	
11,561000	0,66	-0,384030	
11,572000	0,66	-0,384360	
11,583000	0,66	-0,388790	
11,594000	0,66	-0,382170	
11,605000	0,66	-0,373040	
11,616000	0,66	-0,384020	
11,627000	0,66	-0,394770	
11,638000	0,66	-0,402090	
11,649000	0,66	-0,401530	
11,660000	0,66	-0,393410	
11,671000	0,66	-0,401920	
11,682000	0,66	-0,412210	
11,693000	0,66	-0,404310	
11,704000	0,66	-0,403770	
11,715000	0,66	-0,400390	
11,726000	0,66	-0,398820	
11,737000	0,66	-0,398450	
11,748000	0,66	-0,394460	
11,759000	0,66	-0,391940	
11,770000	0,66	-0,390740	
11,781000	0,66	-0,401500	
11,792000	0,66	-0,401790	
11,803000	0,66	-0,389400	
11,814000	0,66	-0,388330	
11,825000	0,66	-0,388190	
11,836000	0,66	-0,375700	
11,847000	0,66	-0,373870	
11,858000	0,66	-0,379580	
11,869000	0,66	-0,386890	
11,880000	0,66	-0,385610	
11,891000	0,66	-0,388920	
11,902000	0,66	-0,376670	
11,913000	0,66	-0,368490	
11,924000	0,66	-0,371010	
11,935000	0,66	-0,367710	
11,946000	0,66	-0,380960	
11,957000	0,66	-0,399310	
11,968000	0,66	-0,409900	
11,979000	0,66	-0,417550	
11,990000	0,66	-0,408070	
12,001000	0,66	-0,386420	
12,012000	0,66	-0,384360	
12,023000	0,66	-0,385450	
12,034000	0,66	-0,390330	
12,045000	0,66	-0,386960	
12,056000	0,66	-0,387460	
12,067000	0,66	-0,382130	
12,078000	0,66	-0,373050	
12,089000	0,66	-0,370500	
12,100000	0,66	-0,369710	
12,111000	0,66	-0,374320	
12,122000	0,66	-0,373890	
12,133000	0,66	-0,373990	
12,144000	0,66	-0,372370	
12,155000	0,66	-0,372150	
12,166000	0,66	-0,389240	
12,177000	0,66	-0,404040	
12,188000	0,66	-0,404340	
12,199000	0,66	-0,393360	
12,210000	0,66	-0,369440	
12,221000	0,66	-0,359180	
12,232000	0,66	-0,370920	
12,243000	0,66	-0,381820	
12,254000	0,66	-0,376420	
12,265000	0,66	-0,367890	
12,276000	0,66	-0,380180	
12,287000	0,66	-0,394990	
12,298000	0,66	-0,383460	
12,309000	0,66	-0,366090	
12,320000	0,66	-0,382300	
12,331000	0,66	-0,387750	
12,342000	0,66	-0,384120	
12,353000	0,66	-0,394800	
12,364000	0,66	-0,389210	
12,375000	0,66	-0,389480	
12,386000	0,66	-0,386230	
12,397000	0,66	-0,379530	
12,408000	0,66	-0,379190	
12,419000	0,66	-0,371660	
12,430000	0,66	-0,368320	
12,441000	0,66	-0,374100	
12,452000	0,66	-0,381160	
12,463000	0,66	-0,373430	
12,474000	0,66	-0,371610	
12,485000	0,66	-0,374270	
12,496000	0,66	-0,370500	
12,507000	0,66	-0,382790	
12,518000	0,66	-0,398090	
12,529000	0,66	-0,387390	
12,540000	0,66	-0,380060	
12,551000	0,66	-0,397270	
12,562000	0,66	-0,409850	
12,573000	0,66	-0,405210	
12,584000	0,66	-0,390900	
12,595000	0,66	-0,394730	
12,606000	0,66	-0,400900	
12,617000	0,66	-0,410750	
12,628000	0,66	-0,399760	
12,639000	0,66	-0,378360	
12,650000	0,66	-0,381020	
12,661000	0,66	-0,387210	
12,672000	0,66	-0,390960	
12,683000	0,66	-0,399120	
12,694000	0,66	-0,401160	
12,705000	0,66	-0,399510	
12,716000	0,66	-0,396000	
12,727000	0,66	-0,400200	
12,738000	0,66	-0,393480	
12,749000	0,66	-0,377760	
12,760000	0,66	-0,390200	
12,771000	0,66	-0,401950	
12,782000	0,66	-0,393870	
12,793000	0,66	-0,385540	
12,804000	0,66	-0,373140	
12,815000	0,66	-0,377120	
12,826000	0,66	-0,395040	
12,837000	0,66	-0,411180	
12,848000	0,66	-0,409220	
12,859000	0,66	-0,406880	
12,870000	0,66	-0,402150	
12,881000	0,66	-0,403600	
12,892000	0,66	-0,410550	
12,903000	0,66	-0,405630	
12,914000	0,66	-0,395550	
12,925000	0,66	-0,390380	
12,936000	0,66	-0,391720	
12,947000	0,66	-0,381540	
12,958000	0,66	-0,364330	
12,969000	0,66	-0,370990	
12,980000	0,66	-0,384670	
12,991000	0,66	-0,391300	
13,002000	0,66	-0,402410	
13,013000	0,66	-0,397750	
13,024000	0,66	-0,380100	
13,035000	0,66	-0,375880	
13,046000	0,66	-0,370710	
13,057000	0,66	-0,374320	
13,068000	0,66	-0,388190	
13,079000	0,66	-0,385830	
13,090000	0,66	-0,387750	
13,101000	0,66	-0,391120	
13,112000	0,66	-0,392630	
13,123000	0,66	-0,399010	
13,134000	0,66	-0,412590	
13,145000	0,66	-0,397850	
13,156000	0,66	-0,397890	
13,167000	0,66	-0,404870	
13,178000	0,66	-0,401250	
13,189000	0,66	-0,391110	
13,200000	0,66	-0,375380	
13,211000	0,66	-0,373930	
13,222000	0,66	-0,373810	
13,233000	0,66	-0,376340	
13,244000	0,66	-0,375300	
13,255000	0,66	-0,380490	
13,266000	0,66	-0,376200	
13,277000	0,66	-0,390340	
13,288000	0,66	-0,396630	
13,299000	0,66	-0,398090	
13,310000	0,66	-0,396260	
13,321000	0,66	-0,389880	
13,332000	0,66	-0,375080	
13,343000	0,66	-0,367030	
13,354000	0,66	-0,390520	
13,365000	0,66	-0,400210	
13,376000	0,66	-0,394770	
13,387000	0,66	-0,391890	
13,398000	0,66	-0,388880	
13,409000	0,66	-0,390610	
13,420000	0,66	-0,389140	
13,431000	0,66	-0,378850	
13,442000	0,66	-0,374180	
13,453000	0,66	-0,383490	
13,464000	0,66	-0,377770	
13,475000	0,66	-0,367520	
13,486000	0,66	-0,387810	
13,497000	0,66	-0,393080	
13,508000	0,66	-0,386230	
13,519000	0,66	-0,388290	
13,530000	0,66	-0,375740	
13,541000	0,66	-0,371190	
13,552000	0,66	-0,381080	
13,563000	0,66	-0,385130	
13,574000	0,66	-0,388500	
13,585000	0,66	-0,387250	
13,596000	0,66	-0,378990	
13,607000	0,66	-0,368850	
13,618000	0,66	-0,375550	
13,629000	0,66	-0,386290	
13,640000	0,66	-0,387290	
13,651000	0,66	-0,388070	
13,662000	0,66	-0,387410	
13,673000	0,66	-0,382950	
13,684000	0,66	-0,376620	
13,695000	0,66	-0,370400	
13,706000	0,66	-0,360280	
13,717000	0,66	-0,372950	
13,728000	0,66	-0,374760	
13,739000	0,66	-0,379100	
13,750000	0,66	-0,372380	
13,761000	0,66	-0,378250	
13,772000	0,66	-0,400640	
13,783000	0,66	-0,394410	
13,794000	0,66	-0,396440	
13,805000	0,66	-0,393330	
13,816000	0,66	-0,382320	
13,827000	0,66	-0,383970	
13,838000	0,66	-0,382860	
13,849000	0,66	-0,393130	
13,860000	0,66	-0,377390	
13,871000	0,66	-0,369030	
13,882000	0,66	-0,364310	
13,893000	0,66	-0,367770	
13,904000	0,66	-0,364530	
13,915000	0,66	-0,362000	
13,926000	0,66	-0,350800	
13,937000	0,66	-0,352290	
13,948000	0,66	-0,354300	
13,959000	0,66	-0,343460	
13,970000	0,66	-0,345480	
13,981000	0,66	-0,348030	
13,992000	0,66	-0,355970	
14,003000	0,66	-0,352960	
14,014000	0,66	-0,352750	
14,025000	0,66	-0,359750	
14,036000	0,66	-0,371900	
14,047000	0,66	-0,381370	
14,058000	0,66	-0,374130	
14,069000	0,66	-0,376060	
14,080000	0,66	-0,366480	
14,091000	0,66	-0,361790	
14,102000	0,66	-0,380750	
14,113000	0,66	-0,365020	
14,124000	0,66	-0,362660	
14,135000	0,66	-0,359700	
14,146000	0,66	-0,352930	
14,157000	0,66	-0,348730	
14,168000	0,66	-0,349280	
14,179000	0,66	-0,340780	
14,190000	0,66	-0,334970	
14,201000	0,66	-0,346850	
14,212000	0,66	-0,345280	
14,223000	0,66	-0,339980	
14,234000	0,66	-0,345330	
14,245000	0,66	-0,346490	
14,256000	0,66	-0,337740	
14,267000	0,66	-0,342490	
14,278000	0,66	-0,339350	
14,289000	0,66	-0,328390	
14,300000	0,66	-0,326070	
14,311000	0,66	-0,326560	
14,322000	0,66	-0,338460	
14,333000	0,66	-0,364720	
14,344000	0,66	-0,374910	
14,355000	0,66	-0,369770	
14,366000	0,66	-0,370870	
14,377000	0,66	-0,376460	
14,388000	0,66	-0,376580	
14,399000	0,66	-0,361530	
14,410000	0,66	-0,363380	
14,421000	0,66	-0,355650	
14,432000	0,66	-0,343380	
14,443000	0,66	-0,345270	
14,454000	0,66	-0,360370	
14,465000	0,66	-0,364840	
14,476000	0,66	-0,377620	
14,487000	0,66	-0,373980	
14,498000	0,66	-0,371090	
14,509000	0,66	-0,356900	
14,520000	0,66	-0,329060	
14,531000	0,66	-0,333550	
14,542000	0,66	-0,332590	
14,553000	0,66	-0,344300	
14,564000	0,66	-0,346810	
14,575000	0,66	-0,350650	
14,586000	0,66	-0,357680	
14,597000	0,66	-0,361160	
14,608000	0,66	-0,374760	
14,619000	0,66	-0,373670	
14,630000	0,66	-0,370450	
14,641000	0,66	-0,369900	
14,652000	0,66	-0,349020	
14,663000	0,66	-0,346840	
14,674000	0,66	-0,368630	
14,685000	0,66	-0,360590	
14,696000	0,66	-0,375020	
14,707000	0,66	-0,382730	
14,718000	0,66	-0,385230	
14,729000	0,66	-0,375170	
14,740000	0,66	-0,389330	
14,751000	0,66	-0,387110	
14,762000	0,66	-0,386990	
14,773000	0,66	-0,388600	
14,784000	0,66	-0,373460	
14,795000	0,66	-0,364630	
14,806000	0,66	-0,367980	
14,817000	0,66	-0,383440	
14,828000	0,66	-0,374360	
14,839000	0,66	-0,371480	
14,850000	0,66	-0,362810	
14,861000	0,66	-0,367090	
14,872000	0,66	-0,376520	
14,883000	0,66	-0,380150	
14,894000	0,66	-0,389600	
14,905000	0,66	-0,391190	
14,916000	0,66	-0,378440	
14,927000	0,66	-0,370970	
14,938000	0,66	-0,378930	
14,949000	0,66	-0,389800	
14,960000	0,66	-0,394120	
14,971000	0,66	-0,399400	
14,982000	0,66	-0,401730	
14,993000	0,66	-0,396740	
15,004000	0,66	-0,398290	
15,015000	0,66	-0,415450	
15,026000	0,66	-0,419180	
15,037000	0,66	-0,399980	
15,048000	0,66	-0,389980	
15,059000	0,66	-0,385840	
15,070000	0,66	-0,363710	
15,081000	0,66	-0,347870	
15,092000	0,66	-0,347710	
15,103000	0,66	-0,345530	
15,114000	0,66	-0,360000	
15,125000	0,66	-0,371050	
15,136000	0,66	-0,377860	
15,147000	0,66	-0,373250	
15,158000	0,66	-0,369610	
15,169000	0,66	-0,378810	
15,180000	0,66	-0,382850	
15,191000	0,66	-0,384780	
15,202000	0,66	-0,390000	
15,213000	0,66	-0,392070	
15,224000	0,66	-0,398890	
15,235000	0,66	-0,404640	
15,246000	0,66	-0,394680	
15,257000	0,66	-0,392660	
15,268000	0,66	-0,377980	
15,279000	0,66	-0,374850	
15,290000	0,66	-0,370130	
15,301000	0,66	-0,371980	
15,312000	0,66	-0,358690	
15,323000	0,66	-0,354990	
15,334000	0,66	-0,351630	
15,345000	0,66	-0,366480	
15,356000	0,66	-0,355050	
15,367000	0,66	-0,368340	
15,378000	0,66	-0,367930	
15,389000	0,66	-0,363570	
15,400000	0,66	-0,366110	
15,411000	0,66	-0,364010	
15,422000	0,66	-0,376230	
15,433000	0,66	-0,376930	
15,444000	0,66	-0,394520	
15,455000	0,66	-0,389820	
15,466000	0,66	-0,385980	
15,477000	0,66	-0,383780	
15,488000	0,66	-0,369150	
15,499000	0,66	-0,368080	
15,510000	0,66	-0,367580	
15,521000	0,66	-0,371070	
15,532000	0,66	-0,377830	
15,543000	0,66	-0,368120	
15,554000	0,66	-0,362180	
15,565000	0,66	-0,365720	
15,576000	0,66	-0,367650	
15,587000	0,66	-0,370200	
15,598000	0,66	-0,358700	
15,609000	0,66	-0,369100	
15,620000	0,66	-0,378910	
15,631000	0,66	-0,376180	
15,642000	0,66	-0,370200	
15,653000	0,66	-0,372560	
15,664000	0,66	-0,381460	
15,675000	0,66	-0,383070	
15,686000	0,66	-0,393590	
15,697000	0,66	-0,407380	
15,708000	0,66	-0,406500	
15,719000	0,66	-0,402830	
15,730000	0,66	-0,392810	
15,741000	0,66	-0,380670	
15,752000	0,66	-0,374800	
15,763000	0,66	-0,372330	
15,774000	0,66	-0,390810	
15,785000	0,66	-0,405360	
15,796000	0,66	-0,402630	
15,807000	0,66	-0,401680	
15,818000	0,66	-0,389920	
15,829000	0,66	-0,392900	
15,840000	0,66	-0,392790	
15,851000	0,66	-0,374600	
15,862000	0,66	-0,364850	
15,873000	0,66	-0,370710	
15,884000	0,66	-0,376940	
15,895000	0,66	-0,376900	
15,906000	0,66	-0,392220	
15,917000	0,66	-0,398930	
15,928000	0,66	-0,393410	
15,939000	0,66	-0,382720	
15,950000	0,66	-0,369130	
15,961000	0,66	-0,379260	
15,972000	0,66	-0,389310	
15,983000	0,66	-0,378120	
15,994000	0,66	-0,391940	
16,005000	0,66	-0,383850	
16,016000	0,66	-0,380160	
16,027000	0,66	-0,368240	
16,038000	0,66	-0,355390	
16,049000	0,66	-0,354890	
16,060000	0,66	-0,355190	
16,071000	0,66	-0,362020	
16,082000	0,66	-0,365310	
16,093000	0,66	-0,376860	
16,104000	0,66	-0,381650	
16,115000	0,66	-0,378950	
16,126000	0,66	-0,384630	
16,137000	0,66	-0,373260	
16,148000	0,66	-0,364020	
16,159000	0,66	-0,367660	
16,170000	0,66	-0,366250	
16,181000	0,66	-0,373330	
16,192000	0,66	-0,377730	
16,203000	0,66	-0,375600	
16,214000	0,66	-0,392300	
16,225000	0,66	-0,397420	
16,236000	0,66	-0,390160	
16,247000	0,66	-0,382790	
16,258000	0,66	-0,371330	
16,269000	0,66	-0,368220	
16,280000	0,66	-0,355010	
16,291000	0,66	-0,354390	
16,302000	0,66	-0,365550	
16,313000	0,66	-0,378130	
16,324000	0,66	-0,386470	
16,335000	0,66	-0,386100	
16,346000	0,66	-0,375930	
16,357000	0,66	-0,361920	
16,368000	0,66	-0,362850	
16,379000	0,66	-0,379200	
16,390000	0,66	-0,394490	
16,401000	0,66	-0,389700	
16,412000	0,66	-0,382530	
16,423000	0,66	-0,382950	
16,434000	0,66	-0,383410	
16,445000	0,66	-0,382100	
16,456000	0,66	-0,377300	
16,467000	0,66	-0,375330	
16,478000	0,66	-0,378170	
16,489000	0,66	-0,390940	
16,500000	0,66	-0,389130	
16,511000	0,66	-0,376860	
16,522000	0,66	-0,381060	
16,533000	0,66	-0,381170	
16,544000	0,66	-0,377060	
16,555000	0,66	-0,374800	
16,566000	0,66	-0,365290	
16,577000	0,66	-0,370280	
16,588000	0,66	-0,383080	
16,599000	0,66	-0,378230	
16,610000	0,66	-0,371800	
16,621000	0,66	-0,383300	
16,632000	0,66	-0,386890	
16,643000	0,66	-0,387420	
16,654000	0,66	-0,385630	
16,665000	0,66	-0,378850	
16,676000	0,66	-0,370210	
16,687000	0,66	-0,381190	
16,698000	0,66	-0,382030	
16,709000	0,66	-0,401040	
16,720000	0,66	-0,399750	
16,731000	0,66	-0,392900	
16,742000	0,66	-0,391730	
16,753000	0,66	-0,381570	
16,764000	0,66	-0,388350	
16,775000	0,66	-0,386810	
16,786000	0,66	-0,380410	
16,797000	0,66	-0,386590	
16,808000	0,66	-0,384500	
16,819000	0,66	-0,381200	
16,830000	0,66	-0,386930	
16,841000	0,66	-0,399250	
16,852000	0,66	-0,398700	
16,863000	0,66	-0,378750	
16,874000	0,66	-0,385340	
16,885000	0,66	-0,391180	
16,896000	0,66	-0,391800	
16,907000	0,66	-0,392840	
16,918000	0,66	-0,384770	
16,929000	0,66	-0,396430	
16,940000	0,66	-0,396320	
16,951000	0,66	-0,380690	
16,962000	0,66	-0,372020	
16,973000	0,66	-0,382470	
16,984000	0,66	-0,404160	
16,995000	0,66	-0,410990	
17,006000	0,66	-0,391600	
17,017000	0,66	-0,379650	
17,028000	0,66	-0,389110	
17,039000	0,66	-0,401510	
17,050000	0,66	-0,406340	
17,061000	0,66	-0,410000	
17,072000	0,66	-0,400100	
17,083000	0,66	-0,395700	
17,094000	0,66	-0,394750	
17,105000	0,66	-0,391370	
17,116000	0,66	-0,396830	
17,127000	0,66	-0,396390	
17,138000	0,66	-0,404630	
17,149000	0,66	-0,404470	
17,160000	0,66	-0,384210	
17,171000	0,66	-0,374040	
17,182000	0,66	-0,365850	
17,193000	0,66	-0,376200	
17,204000	0,66	-0,389210	
17,215000	0,66	-0,393560	
17,226000	0,66	-0,378780	
17,237000	0,66	-0,362220	
17,248000	0,66	-0,358720	
17,259000	0,66	-0,366820	
17,270000	0,66	-0,379780	
17,281000	0,66	-0,378220	
17,292000	0,66	-0,365640	
17,303000	0,66	-0,376020	
17,314000	0,66	-0,386200	
17,325000	0,66	-0,400220	
17,336000	0,66	-0,403760	
17,347000	0,66	-0,388550	
17,358000	0,66	-0,369140	
17,369000	0,66	-0,373780	
17,380000	0,66	-0,379320	
17,391000	0,66	-0,387210	
17,402000	0,66	-0,378780	
17,413000	0,66	-0,377100	
17,424000	0,66	-0,377240	
17,435000	0,66	-0,384150	
17,446000	0,66	-0,370790	
17,457000	0,66	-0,366480	
17,468000	0,66	-0,366500	
17,479000	0,66	-0,368220	
17,490000	0,66	-0,378910	
17,501000	0,66	-0,404900	
17,512000	0,66	-0,395360	
17,523000	0,66	-0,389950	
17,534000	0,66	-0,374870	
17,545000	0,66	-0,368070	
17,556000	0,66	-0,384390	
17,567000	0,66	-0,374810	
17,578000	0,66	-0,374750	
17,589000	0,66	-0,373370	
17,600000	0,66	-0,386600	
17,611000	0,66	-0,394610	
17,622000	0,66	-0,389720	
17,633000	0,66	-0,380650	
17,644000	0,66	-0,380990	
17,655000	0,66	-0,381930	
17,666000	0,66	-0,387100	
17,677000	0,66	-0,391900	
17,688000	0,66	-0,379740	
17,699000	0,66	-0,367890	
17,710000	0,66	-0,364020	
17,721000	0,66	-0,364710	
17,732000	0,66	-0,370430	
17,743000	0,66	-0,371730	
17,754000	0,66	-0,369410	
17,765000	0,66	-0,366700	
17,776000	0,66	-0,364600	
17,787000	0,66	-0,372990	
17,798000	0,66	-0,374470	
17,809000	0,66	-0,375440	
17,820000	0,66	-0,377950	
17,831000	0,66	-0,378700	
17,842000	0,66	-0,388380	
17,853000	0,66	-0,383860	
17,864000	0,66	-0,382410	
17,875000	0,66	-0,383320	
17,886000	0,66	-0,381290	
17,897000	0,66	-0,388060	
17,908000	0,66	-0,385610	
17,919000	0,66	-0,390670	
17,930000	0,66	-0,380850	
17,941000	0,66	-0,372000	
17,952000	0,66	-0,378110	
17,963000	0,66	-0,364700	
17,974000	0,66	-0,353750	
17,985000	0,66	-0,358150	
17,996000	0,66	-0,363550	
18,007000	0,66	-0,375660	
18,018000	0,66	-0,386240	
18,029000	0,66	-0,394600	
18,040000	0,66	-0,394840	
18,051000	0,66	-0,392440	
18,062000	0,66	-0,385830	
18,073000	0,66	-0,384990	
18,084000	0,66	-0,392370	
18,095000	0,66	-0,394030	
18,106000	0,66	-0,386870	
18,117000	0,66	-0,392220	
18,128000	0,66	-0,398950	
18,139000	0,66	-0,398740	
18,150000	0,66	-0,392910	
18,161000	0,66	-0,381290	
18,172000	0,66	-0,375270	
18,183000	0,66	-0,378310	
18,194000	0,66	-0,391720	
18,205000	0,66	-0,404320	
18,216000	0,66	-0,409330	
18,227000	0,66	-0,399000	
18,238000	0,66	-0,395600	
18,249000	0,66	-0,396120	
18,260000	0,66	-0,394150	
18,271000	0,66	-0,390130	
18,282000	0,66	-0,396980	
18,293000	0,66	-0,391510	
18,304000	0,66	-0,385370	
18,315000	0,66	-0,385470	
18,326000	0,66	-0,399050	
18,337000	0,66	-0,392830	
18,348000	0,66	-0,393530	
18,359000	0,66	-0,398870	
18,370000	0,66	-0,392390	
18,381000	0,66	-0,396140	
18,392000	0,66	-0,403080	
18,403000	0,66	-0,388460	
18,414000	0,66	-0,384050	
18,425000	0,66	-0,392440	
18,436000	0,66	-0,393800	
18,447000	0,66	-0,381950	
18,458000	0,66	-0,388410	
18,469000	0,66	-0,395280	
18,480000	0,66	-0,394510	
18,491000	0,66	-0,393410	
18,502000	0,66	-0,390550	
18,513000	0,66	-0,391770	
18,524000	0,66	-0,384890	
18,535000	0,66	-0,386950	
18,546000	0,66	-0,393660	
18,557000	0,66	-0,387550	
18,568000	0,66	-0,372920	
18,579000	0,66	-0,355850	
18,590000	0,66	-0,365240	
18,601000	0,66	-0,370610	
18,612000	0,66	-0,383710	
18,623000	0,66	-0,384850	
18,634000	0,66	-0,383250	
18,645000	0,66	-0,376650	
18,656000	0,66	-0,364410	
18,667000	0,66	-0,364880	
18,678000	0,66	-0,367710	
18,689000	0,66	-0,366060	
18,700000	0,66	-0,379500	
18,711000	0,66	-0,400430	
18,722000	0,66	-0,391790	
18,733000	0,66	-0,391710	
18,744000	0,66	-0,396110	
18,755000	0,66	-0,386970	
18,766000	0,66	-0,392690	
18,777000	0,66	-0,386830	
18,788000	0,66	-0,368380	
18,799000	0,66	-0,358660	
18,810000	0,66	-0,349850	
18,821000	0,66	-0,361460	
18,832000	0,66	-0,374080	
18,843000	0,66	-0,384510	
18,854000	0,66	-0,383650	
18,865000	0,66	-0,383050	
18,876000	0,66	-0,378380	
18,887000	0,66	-0,372730	
18,898000	0,66	-0,371420	
18,909000	0,66	-0,366220	
18,920000	0,66	-0,354600	
18,931000	0,66	-0,366240	
18,942000	0,66	-0,362230	
18,953000	0,66	-0,354710	
18,964000	0,66	-0,364410	
18,975000	0,66	-0,368160	
18,986000	0,66	-0,357450	
18,997000	0,66	-0,360350	
19,008000	0,66	-0,366560	
19,019000	0,66	-0,375070	
19,030000	0,66	-0,371820	
19,041000	0,66	-0,359360	
19,052000	0,66	-0,352210	
19,063000	0,66	-0,355740	
19,074000	0,66	-0,350750	
19,085000	0,66	-0,346870	
19,096000	0,66	-0,358560	
19,107000	0,66	-0,375970	
19,118000	0,66	-0,375000	
19,129000	0,66	-0,373640	
19,140000	0,66	-0,375420	
19,151000	0,66	-0,385230	
19,162000	0,66	-0,401810	
19,173000	0,66	-0,392170	
19,184000	0,66	-0,391700	
19,195000	0,66	-0,401400	
19,206000	0,66	-0,399480	
19,217000	0,66	-0,408070	
19,228000	0,66	-0,408550	
19,239000	0,66	-0,397070	
19,250000	0,66	-0,382170	
19,261000	0,66	-0,379510	
19,272000	0,66	-0,392290	
19,283000	0,66	-0,395730	
19,294000	0,66	-0,390340	
19,305000	0,66	-0,397670	
19,316000	0,66	-0,404330	
19,327000	0,66	-0,405490	
19,338000	0,66	-0,401470	
19,349000	0,66	-0,399440	
19,360000	0,66	-0,397630	
19,371000	0,66	-0,394170	
19,382000	0,66	-0,404470	
19,393000	0,66	-0,396380	
19,404000	0,66	-0,383640	
19,415000	0,66	-0,396410	
19,426000	0,66	-0,388150	
19,437000	0,66	-0,385630	
19,448000	0,66	-0,394860	
19,459000	0,66	-0,392590	
19,470000	0,66	-0,401490	
19,481000	0,66	-0,396070	
19,492000	0,66	-0,401340	
19,503000	0,66	-0,388670	
19,514000	0,66	-0,394740	
19,525000	0,66	-0,408060	
19,536000	0,66	-0,419900	
19,547000	0,66	-0,433990	
19,558000	0,66	-0,433840	
19,569000	0,66	-0,426880	
19,580000	0,66	-0,423630	
19,591000	0,66	-0,417260	
19,602000	0,66	-0,430960	
19,613000	0,66	-0,421540	
19,624000	0,66	-0,411740	
19,635000	0,66	-0,389720	
19,646000	0,66	-0,388050	
19,657000	0,66	-0,372970	
19,668000	0,66	-0,375070	
19,679000	0,66	-0,388400	
19,690000	0,66	-0,379140	
19,701000	0,66	-0,372850	
19,712000	0,66	-0,369950	
19,723000	0,66	-0,375690	
19,734000	0,66	-0,391960	
19,745000	0,66	-0,404360	
19,756000	0,66	-0,425060	
19,767000	0,66	-0,417890	
19,778000	0,66	-0,398350	
19,789000	0,66	-0,387880	
19,800000	0,66	-0,392330	
19,811000	0,66	-0,404520	
19,822000	0,66	-0,404830	
19,833000	0,66	-0,403140	
19,844000	0,66	-0,395820	
19,855000	0,66	-0,386690	
19,866000	0,66	-0,384710	
19,877000	0,66	-0,388100	
19,888000	0,66	-0,395880	
19,899000	0,66	-0,388680	
19,910000	0,66	-0,384320	
19,921000	0,66	-0,406180	
19,932000	0,66	-0,414650	
19,943000	0,66	-0,397150	
19,954000	0,66	-0,383790	
19,965000	0,66	-0,380960	
19,976000	0,66	-0,376250	
19,987000	0,66	-0,374930	
19,998000	0,66	-0,387430	
20,009000	0,66	-0,406140	
20,020000	0,66	-0,402940	
20,031000	0,66	-0,390780	
20,042000	0,66	-0,394980	
20,053000	0,66	-0,391150	
20,064000	0,66	-0,384330	
20,075000	0,66	-0,388260	
20,086000	0,66	-0,398280	
20,097000	0,66	-0,412050	
20,108000	0,66	-0,420060	
20,119000	0,66	-0,421270	
20,130000	0,66	-0,431580	
20,141000	0,66	-0,426250	
20,152000	0,66	-0,416450	
20,163000	0,66	-0,422330	
20,174000	0,66	-0,415380	
20,185000	0,66	-0,418820	
20,196000	0,66	-0,423890	
20,207000	0,66	-0,418960	
20,218000	0,66	-0,404680	
20,229000	0,66	-0,403860	
20,240000	0,66	-0,407160	
20,251000	0,66	-0,404390	
20,262000	0,66	-0,406460	
20,273000	0,66	-0,392570	
20,284000	0,66	-0,401330	
20,295000	0,66	-0,409040	
20,306000	0,66	-0,413850	
20,317000	0,66	-0,409090	
20,328000	0,66	-0,391970	
20,339000	0,66	-0,391260	
20,350000	0,66	-0,395670	
20,361000	0,66	-0,397230	
20,372000	0,66	-0,406600	
20,383000	0,66	-0,403270	
20,394000	0,66	-0,405190	
20,405000	0,66	-0,397800	
20,416000	0,66	-0,403420	
20,427000	0,66	-0,400240	
20,438000	0,66	-0,394870	
20,449000	0,66	-0,396320	
20,460000	0,66	-0,408160	
20,471000	0,66	-0,405350	
20,482000	0,66	-0,406890	
20,493000	0,66	-0,402400	
20,504000	0,66	-0,399500	
20,515000	0,66	-0,395670	
20,526000	0,66	-0,391810	
20,537000	0,66	-0,404000	
20,548000	0,66	-0,416880	
20,559000	0,66	-0,416600	
20,570000	0,66	-0,402190	
20,581000	0,66	-0,386400	
20,592000	0,66	-0,391300	
20,603000	0,66	-0,395730	
20,614000	0,66	-0,391180	
20,625000	0,66	-0,394260	
20,636000	0,66	-0,394000	
20,647000	0,66	-0,395710	
20,658000	0,66	-0,393340	
20,669000	0,66	-0,382680	
20,680000	0,66	-0,380390	
20,691000	0,66	-0,387070	
20,702000	0,66	-0,407100	
20,713000	0,66	-0,416330	
20,724000	0,66	-0,411730	
20,735000	0,66	-0,407260	
20,746000	0,66	-0,418170	
20,757000	0,66	-0,419890	
20,768000	0,66	-0,415730	
20,779000	0,66	-0,405420	
20,790000	0,66	-0,405490	
20,801000	0,66	-0,389000	
20,812000	0,66	-0,395430	
20,823000	0,66	-0,402400	
20,834000	0,66	-0,401520	
20,845000	0,66	-0,402390	
20,856000	0,66	-0,390640	
20,867000	0,66	-0,386740	
20,878000	0,66	-0,407800	
20,889000	0,66	-0,394140	
20,900000	0,66	-0,377190	
20,911000	0,66	-0,365610	
20,922000	0,66	-0,364700	
20,933000	0,66	-0,365690	
20,944000	0,66	-0,383160	
20,955000	0,66	-0,391640	
20,966000	0,66	-0,394740	
20,977000	0,66	-0,396090	
20,988000	0,66	-0,409740	
20,999000	0,66	-0,411150	
21,010000	0,66	-0,397420	
21,021000	0,66	-0,395840	
21,032000	0,66	-0,395240	
21,043000	0,66	-0,394090	
21,054000	0,66	-0,385550	
21,065000	0,66	-0,401020	
21,076000	0,66	-0,412620	
21,087000	0,66	-0,408020	
21,098000	0,66	-0,413010	
21,109000	0,66	-0,417050	
21,120000	0,66	-0,420360	
21,131000	0,66	-0,420470	
21,142000	0,66	-0,407250	
21,153000	0,66	-0,386280	
21,164000	0,66	-0,385510	
21,175000	0,66	-0,406770	
21,186000	0,66	-0,401310	
21,197000	0,66	-0,401990	
21,208000	0,66	-0,412360	
21,219000	0,66	-0,425200	
21,230000	0,66	-0,426300	
21,241000	0,66	-0,413100	
21,252000	0,66	-0,402700	
21,263000	0,66	-0,401200	
21,274000	0,66	-0,399930	
21,285000	0,66	-0,403210	
21,296000	0,66	-0,409120	
21,307000	0,66	-0,405700	
21,318000	0,66	-0,395840	
21,329000	0,66	-0,399380	
21,340000	0,66	-0,420450	
21,351000	0,66	-0,418400	
21,362000	0,66	-0,415970	
21,373000	0,66	-0,425620	
21,384000	0,66	-0,419930	
21,395000	0,66	-0,401780	
21,406000	0,66	-0,401030	
21,417000	0,66	-0,388370	
21,428000	0,66	-0,384570	
21,439000	0,66	-0,401610	
21,450000	0,66	-0,415410	
21,461000	0,66	-0,402550	
21,472000	0,66	-0,405610	
21,483000	0,66	-0,412600	
21,494000	0,66	-0,409330	
21,505000	0,66	-0,409260	
21,516000	0,66	-0,423810	
21,527000	0,66	-0,412990	
21,538000	0,66	-0,395110	
21,549000	0,66	-0,398200	
21,560000	0,66	-0,422120	
21,571000	0,66	-0,427420	
21,582000	0,66	-0,428310	
21,593000	0,66	-0,411730	
21,604000	0,66	-0,426630	
21,615000	0,66	-0,429410	
21,626000	0,66	-0,437620	
21,637000	0,66	-0,418840	
21,648000	0,66	-0,396530	
21,659000	0,66	-0,404660	
21,670000	0,66	-0,402010	
21,681000	0,66	-0,401370	
21,692000	0,66	-0,394370	
21,703000	0,66	-0,417750	
21,714000	0,66	-0,429730	
21,725000	0,66	-0,431510	
21,736000	0,66	-0,412170	
21,747000	0,66	-0,419300	
21,758000	0,66	-0,422590	
21,769000	0,66	-0,422740	
21,780000	0,66	-0,412090	
21,791000	0,66	-0,416160	
21,802000	0,66	-0,411410	
21,813000	0,66	-0,392190	
21,824000	0,66	-0,406230	
21,835000	0,66	-0,421280	
21,846000	0,66	-0,427730	
21,857000	0,66	-0,416640	
21,868000	0,66	-0,409930	
21,879000	0,66	-0,398530	
21,890000	0,66	-0,399460	
21,901000	0,66	-0,411820	
21,912000	0,66	-0,418510	
21,923000	0,66	-0,428920	
21,934000	0,66	-0,425220	
21,945000	0,66	-0,409620	
21,956000	0,66	-0,400190	
21,967000	0,66	-0,406910	
21,978000	0,66	-0,412420	
21,989000	0,66	-0,411280	
22,000000	0,66	-0,408750	
22,011000	0,66	-0,414110	
22,022000	0,66	-0,428640	
22,033000	0,66	-0,419160	
22,044000	0,66	-0,410280	
22,055000	0,66	-0,413410	
22,066000	0,66	-0,411650	
22,077000	0,66	-0,419200	
22,088000	0,66	-0,424710	
22,099000	0,66	-0,422310	
22,110000	0,66	-0,419590	
22,121000	0,66	-0,418160	
22,132000	0,66	-0,418900	
22,143000	0,66	-0,414470	
22,154000	0,66	-0,428830	
22,165000	0,66	-0,436530	
22,176000	0,66	-0,439530	
22,187000	0,66	-0,430140	
22,198000	0,66	-0,420870	
22,209000	0,66	-0,418540	
22,220000	0,66	-0,422930	
22,231000	0,66	-0,420370	
22,242000	0,66	-0,413810	
22,253000	0,66	-0,405600	
22,264000	0,66	-0,400150	
22,275000	0,66	-0,398660	
22,286000	0,66	-0,391090	
22,297000	0,66	-0,395250	
22,308000	0,66	-0,396450	
22,319000	0,66	-0,390430	
22,330000	0,66	-0,395170	
22,341000	0,66	-0,416690	
22,352000	0,66	-0,421150	
22,363000	0,66	-0,427620	
22,374000	0,66	-0,419190	
22,385000	0,66	-0,407910	
22,396000	0,66	-0,411610	
22,407000	0,66	-0,426540	
22,418000	0,66	-0,422020	
22,429000	0,66	-0,410350	
22,440000	0,66	-0,409510	
22,451000	0,66	-0,414710	
22,462000	0,66	-0,411490	
22,473000	0,66	-0,410240	
22,484000	0,66	-0,407680	
22,495000	0,66	-0,399030	
22,506000	0,66	-0,393690	
22,517000	0,66	-0,388610	
22,528000	0,66	-0,396250	
22,539000	0,66	-0,397500	
22,550000	0,66	-0,398730	
22,561000	0,66	-0,403140	
22,572000	0,66	-0,415040	
22,583000	0,66	-0,416190	
22,594000	0,66	-0,424940	
22,605000	0,66	-0,414810	
22,616000	0,66	-0,402830	
22,627000	0,66	-0,406070	
22,638000	0,66	-0,402600	
22,649000	0,66	-0,401920	
22,660000	0,66	-0,418060	
22,671000	0,66	-0,434980	
22,682000	0,66	-0,441260	
22,693000	0,66	-0,432040	
22,704000	0,66	-0,424510	
22,715000	0,66	-0,422660	
22,726000	0,66	-0,416930	
22,737000	0,66	-0,426860	
22,748000	0,66	-0,422050	
22,759000	0,66	-0,402190	
22,770000	0,66	-0,392660	
22,781000	0,66	-0,406320	
22,792000	0,66	-0,413350	
22,803000	0,66	-0,420220	
22,814000	0,66	-0,431340	
22,825000	0,66	-0,428500	
22,836000	0,66	-0,428970	
22,847000	0,66	-0,435750	
22,858000	0,66	-0,434890	
22,869000	0,66	-0,428660	
22,880000	0,66	-0,434120	
22,891000	0,66	-0,439470	
22,902000	0,66	-0,436490	
22,913000	0,66	-0,440960	
22,924000	0,66	-0,452990	
22,935000	0,66	-0,457160	
22,946000	0,66	-0,445550	
22,957000	0,66	-0,449920	
22,968000	0,66	-0,444740	
22,979000	0,66	-0,416460	
22,990000	0,66	-0,406100	
23,001000	0,66	-0,408400	
23,012000	0,66	-0,416010	
23,023000	0,66	-0,423680	
23,034000	0,66	-0,427590	
23,045000	0,66	-0,437240	
23,056000	0,66	-0,434370	
23,067000	0,66	-0,425150	
23,078000	0,66	-0,437410	
23,089000	0,66	-0,439580	
23,100000	0,66	-0,433320	
23,111000	0,66	-0,430240	
23,122000	0,66	-0,441970	
23,133000	0,66	-0,433660	
23,144000	0,66	-0,422100	
23,155000	0,66	-0,410060	
23,166000	0,66	-0,415350	
23,177000	0,66	-0,414290	
23,188000	0,66	-0,419210	
23,199000	0,66	-0,413920	
23,210000	0,66	-0,416090	
23,221000	0,66	-0,406040	
23,232000	0,66	-0,422470	
23,243000	0,66	-0,440480	
23,254000	0,66	-0,441110	
23,265000	0,66	-0,445020	
23,276000	0,66	-0,435090	
23,287000	0,66	-0,427310	
23,298000	0,66	-0,438130	
23,309000	0,66	-0,441680	
23,320000	0,66	-0,434800	
23,331000	0,66	-0,426900	
23,342000	0,66	-0,419020	
23,353000	0,66	-0,409010	
23,364000	0,66	-0,404290	
23,375000	0,66	-0,411350	
23,386000	0,66	-0,419100	
23,397000	0,66	-0,425550	
23,408000	0,66	-0,422010	
23,419000	0,66	-0,409640	
23,430000	0,66	-0,405740	
23,441000	0,66	-0,409350	
23,452000	0,66	-0,426200	
23,463000	0,66	-0,433140	
23,474000	0,66	-0,426340	
23,485000	0,66	-0,418380	
23,496000	0,66	-0,406800	
23,507000	0,66	-0,393500	
23,518000	0,66	-0,383400	
23,529000	0,66	-0,397620	
23,540000	0,66	-0,395530	
23,551000	0,66	-0,407250	
23,562000	0,66	-0,419700	
23,573000	0,66	-0,422970	
23,584000	0,66	-0,431250	
23,595000	0,66	-0,421810	
23,606000	0,66	-0,395480	
23,617000	0,66	-0,405780	
23,628000	0,66	-0,411230	
23,639000	0,66	-0,408990	
23,650000	0,66	-0,391360	
23,661000	0,66	-0,412900	
23,672000	0,66	-0,440140	
23,683000	0,66	-0,454840	
23,694000	0,66	-0,447940	
23,705000	0,66	-0,454080	
23,716000	0,66	-0,446330	
23,727000	0,66	-0,437440	
23,738000	0,66	-0,422140	
23,749000	0,66	-0,422850	
23,760000	0,66	-0,416090	
23,771000	0,66	-0,407070	
23,782000	0,66	-0,424510	
23,793000	0,66	-0,425750	
23,804000	0,66	-0,405280	
23,815000	0,66	-0,395170	
23,826000	0,66	-0,402240	
23,837000	0,66	-0,395460	
23,848000	0,66	-0,390240	
23,859000	0,66	-0,397210	
23,870000	0,66	-0,404560	
23,881000	0,66	-0,402320	
23,892000	0,66	-0,403040	
23,903000	0,66	-0,423810	
23,914000	0,66	-0,435450	
23,925000	0,66	-0,433580	
23,936000	0,66	-0,421270	
23,947000	0,66	-0,411300	
23,958000	0,66	-0,413610	
23,969000	0,66	-0,423220	
23,980000	0,66	-0,425990	
23,991000	0,66	-0,436250	
24,002000	0,66	-0,424860	
24,013000	0,66	-0,412530	
24,024000	0,66	-0,420200	
24,035000	0,66	-0,416340	
24,046000	0,66	-0,402440	
24,057000	0,66	-0,394240	
24,068000	0,66	-0,394090	
24,079000	0,66	-0,411970	
24,090000	0,66	-0,420240	
24,101000	0,66	-0,419020	
24,112000	0,66	-0,430080	
24,123000	0,66	-0,432750	
24,134000	0,66	-0,434610	
24,145000	0,66	-0,437560	
24,156000	0,66	-0,442640	
24,167000	0,66	-0,441230	
24,178000	0,66	-0,436720	
24,189000	0,66	-0,432010	
24,200000	0,66	-0,435400	
24,211000	0,66	-0,428290	
24,222000	0,66	-0,415810	
24,233000	0,66	-0,405420	
24,244000	0,66	-0,407030	
24,255000	0,66	-0,383360	
24,266000	0,66	-0,371800	
24,277000	0,66	-0,380810	
24,288000	0,66	-0,371250	
24,299000	0,66	-0,377000	
24,310000	0,66	-0,378430	
24,321000	0,66	-0,359800	
24,332000	0,66	-0,360300	
24,343000	0,66	-0,371750	
24,354000	0,66	-0,369900	
24,365000	0,66	-0,368870	
24,376000	0,66	-0,367070	
24,387000	0,66	-0,378270	
24,398000	0,66	-0,379290	
24,409000	0,66	-0,395320	
24,420000	0,66	-0,406070	
24,431000	0,66	-0,393670	
24,442000	0,66	-0,389200	
24,453000	0,66	-0,398920	
24,464000	0,66	-0,390800	
24,475000	0,66	-0,403490	
24,486000	0,66	-0,414790	
24,497000	0,66	-0,414280	
24,508000	0,66	-0,433960	
24,519000	0,66	-0,435860	
24,530000	0,66	-0,424610	
24,541000	0,66	-0,410670	
24,552000	0,66	-0,393450	
24,563000	0,66	-0,401740	
24,574000	0,66	-0,410310	
24,585000	0,66	-0,401990	
24,596000	0,66	-0,408410	
24,607000	0,66	-0,403800	
24,618000	0,66	-0,393870	
24,629000	0,66	-0,404520	
24,640000	0,66	-0,431440	
24,651000	0,66	-0,423140	
24,662000	0,66	-0,410590	
24,673000	0,66	-0,421130	
24,684000	0,66	-0,411410	
24,695000	0,66	-0,391370	
24,706000	0,66	-0,384890	
24,717000	0,66	-0,395010	
24,728000	0,66	-0,410570	
24,739000	0,66	-0,415160	
24,750000	0,66	-0,424600	
24,761000	0,66	-0,440030	
24,772000	0,66	-0,437690	
24,783000	0,66	-0,428510	
24,794000	0,66	-0,433190	
24,805000	0,66	-0,432340	
24,816000	0,66	-0,417030	
24,827000	0,66	-0,410760	
24,838000	0,66	-0,411700	
24,849000	0,66	-0,423190	
24,860000	0,66	-0,436870	
24,871000	0,66	-0,426550	
24,882000	0,66	-0,417330	
24,893000	0,66	-0,422590	
24,904000	0,66	-0,430970	
24,915000	0,66	-0,422910	
24,926000	0,66	-0,404460	
24,937000	0,66	-0,404860	
24,948000	0,66	-0,411640	
24,959000	0,66	-0,424950	
24,970000	0,66	-0,417310	
24,981000	0,66	-0,420830	
24,992000	0,66	-0,431560	
25,003000	0,66	-0,437240	
25,014000	0,66	-0,436080	
25,025000	0,66	-0,435650	
25,036000	0,66	-0,426670	
25,047000	0,66	-0,411160	
25,058000	0,66	-0,434170	
25,069000	0,66	-0,431040	
25,080000	0,66	-0,432400	
25,091000	0,66	-0,428940	
25,102000	0,66	-0,423940	
25,113000	0,66	-0,418240	
25,124000	0,66	-0,426580	
25,135000	0,66	-0,416520	
25,146000	0,66	-0,401620	
25,157000	0,66	-0,404510	
25,168000	0,66	-0,409050	
25,179000	0,66	-0,425320	
25,190000	0,66	-0,454820	
25,201000	0,66	-0,444110	
25,212000	0,66	-0,439050	
25,223000	0,66	-0,438340	
25,234000	0,66	-0,432440	
25,245000	0,66	-0,424460	
25,256000	0,66	-0,427440	
25,267000	0,66	-0,425290	
25,278000	0,66	-0,424100	
25,289000	0,66	-0,429480	
25,300000	0,66	-0,413610	
25,311000	0,66	-0,413500	
25,322000	0,66	-0,425000	
25,333000	0,66	-0,425000	
25,344000	0,66	-0,415740	
25,355000	0,66	-0,407760	
25,366000	0,66	-0,412550	
25,377000	0,66	-0,411700	
25,388000	0,66	-0,427800	
25,399000	0,66	-0,432550	
25,410000	0,66	-0,428640	
25,421000	0,66	-0,415800	
25,432000	0,66	-0,411840	
25,443000	0,66	-0,431180	
25,454000	0,66	-0,440990	
25,465000	0,66	-0,437230	
25,476000	0,66	-0,428480	
25,487000	0,66	-0,419210	
25,498000	0,66	-0,432920	
25,509000	0,66	-0,446990	
25,520000	0,66	-0,450450	
25,531000	0,66	-0,448160	
25,542000	0,66	-0,431440	
25,553000	0,66	-0,438800	
25,564000	0,66	-0,442410	
25,575000	0,66	-0,445140	
25,586000	0,66	-0,445360	
25,597000	0,66	-0,448680	
25,608000	0,66	-0,439210	
25,619000	0,66	-0,424260	
25,630000	0,66	-0,414140	
25,641000	0,66	-0,413660	
25,652000	0,66	-0,434560	
25,663000	0,66	-0,413030	
25,674000	0,66	-0,406460	
25,685000	0,66	-0,431460	
25,696000	0,66	-0,441310	
25,707000	0,66	-0,429480	
25,718000	0,66	-0,425780	
25,729000	0,66	-0,438410	
25,740000	0,66	-0,439250	
25,751000	0,66	-0,443080	
25,762000	0,66	-0,435460	
25,773000	0,66	-0,438530	
25,784000	0,66	-0,443080	
25,795000	0,66	-0,443890	
25,806000	0,66	-0,426630	
25,817000	0,66	-0,435610	
25,828000	0,66	-0,450050	
25,839000	0,66	-0,448880	
25,850000	0,66	-0,432120	
25,861000	0,66	-0,414410	
25,872000	0,66	-0,416220	
25,883000	0,66	-0,423930	
25,894000	0,66	-0,430530	
25,905000	0,66	-0,425920	
25,916000	0,66	-0,425780	
25,927000	0,66	-0,429380	
25,938000	0,66	-0,426880	
25,949000	0,66	-0,434140	
25,960000	0,66	-0,434110	
25,971000	0,66	-0,411040	
25,982000	0,66	-0,406020	
25,993000	0,66	-0,416590	
26,004000	0,66	-0,429580	
26,015000	0,66	-0,446550	
26,026000	0,66	-0,451940	
26,037000	0,66	-0,439160	
26,048000	0,66	-0,428900	
26,059000	0,66	-0,424000	
26,070000	0,66	-0,428170	
26,081000	0,66	-0,423370	
26,092000	0,66	-0,415760	
26,103000	0,66	-0,427520	
26,114000	0,66	-0,450520	
26,125000	0,66	-0,458730	
26,136000	0,66	-0,456010	
26,147000	0,66	-0,453190	
26,158000	0,66	-0,443470	
26,169000	0,66	-0,436520	
26,180000	0,66	-0,440350	
26,191000	0,66	-0,444740	
26,202000	0,66	-0,435720	
26,213000	0,66	-0,418450	
26,224000	0,66	-0,425800	
26,235000	0,66	-0,428250	
26,246000	0,66	-0,404060	
26,257000	0,66	-0,406620	
26,268000	0,66	-0,416690	
26,279000	0,66	-0,423840	
26,290000	0,66	-0,431420	
26,301000	0,66	-0,440200	
26,312000	0,66	-0,435620	
26,323000	0,66	-0,418390	
26,334000	0,66	-0,415500	
26,345000	0,66	-0,410750	
26,356000	0,66	-0,420840	
26,367000	0,66	-0,430280	
26,378000	0,66	-0,420470	
26,389000	0,66	-0,418500	
26,400000	0,66	-0,416220	
26,411000	0,66	-0,424070	
26,422000	0,66	-0,414880	
26,433000	0,66	-0,412590	
26,444000	0,66	-0,415780	
26,455000	0,66	-0,441230	
26,466000	0,66	-0,439240	
26,477000	0,66	-0,438620	
26,488000	0,66	-0,445500	
26,499000	0,66	-0,455280	
26,510000	0,66	-0,450050	
26,521000	0,66	-0,448950	
26,532000	0,66	-0,432210	
26,543000	0,66	-0,426710	
26,554000	0,66	-0,433650	
26,565000	0,66	-0,432050	
26,576000	0,66	-0,436600	
26,587000	0,66	-0,449560	
26,598000	0,66	-0,453420	
26,609000	0,66	-0,444800	
26,620000	0,66	-0,450840	
26,631000	0,66	-0,457530	
26,642000	0,66	-0,459790	
26,653000	0,66	-0,466450	
26,664000	0,66	-0,462260	
26,675000	0,66	-0,473460	
26,686000	0,66	-0,457920	
26,697000	0,66	-0,452570	
26,708000	0,66	-0,439090	
26,719000	0,66	-0,435540	
26,730000	0,66	-0,446290	
26,741000	0,66	-0,451080	
26,752000	0,66	-0,444390	
26,763000	0,66	-0,429900	
26,774000	0,66	-0,432660	
26,785000	0,66	-0,440640	
26,796000	0,66	-0,453540	
26,807000	0,66	-0,459080	
26,818000	0,66	-0,457610	
26,829000	0,66	-0,454010	
26,840000	0,66	-0,445150	
26,851000	0,66	-0,449490	
26,862000	0,66	-0,449360	
26,873000	0,66	-0,446600	
26,884000	0,66	-0,444260	
26,895000	0,66	-0,437030	
26,906000	0,66	-0,433010	
26,917000	0,66	-0,431590	
26,928000	0,66	-0,452230	
26,939000	0,66	-0,453190	
26,950000	0,66	-0,451260	
26,961000	0,66	-0,460840	
26,972000	0,66	-0,453220	
26,983000	0,66	-0,447730	
26,994000	0,66	-0,452290	
27,005000	0,66	-0,445440	
27,016000	0,66	-0,441830	
27,027000	0,66	-0,443750	
27,038000	0,66	-0,444310	
27,049000	0,66	-0,454920	
27,060000	0,66	-0,453810	
27,071000	0,66	-0,447680	
27,082000	0,66	-0,447110	
27,093000	0,66	-0,439050	
27,104000	0,66	-0,439140	
27,115000	0,66	-0,442050	
27,126000	0,66	-0,461980	
27,137000	0,66	-0,460380	
27,148000	0,66	-0,452150	
27,159000	0,66	-0,455400	
27,170000	0,66	-0,460750	
27,181000	0,66	-0,452840	
27,192000	0,66	-0,447570	
27,203000	0,66	-0,439210	
27,214000	0,66	-0,438590	
27,225000	0,66	-0,441520	
27,236000	0,66	-0,436660	
27,247000	0,66	-0,437660	
27,258000	0,66	-0,434130	
27,269000	0,66	-0,455980	
27,280000	0,66	-0,462220	
27,291000	0,66	-0,463360	
27,302000	0,66	-0,480660	
27,313000	0,66	-0,463240	
27,324000	0,66	-0,466050	
27,335000	0,66	-0,480170	
27,346000	0,66	-0,458000	
27,357000	0,66	-0,452190	
27,368000	0,66	-0,465770	
27,379000	0,66	-0,467890	
27,390000	0,66	-0,465670	
27,401000	0,66	-0,480400	
27,412000	0,66	-0,495200	
27,423000	0,66	-0,498940	
27,434000	0,66	-0,503560	
27,445000	0,66	-0,494710	
27,456000	0,66	-0,482970	
27,467000	0,66	-0,475390	
27,478000	0,66	-0,461920	
27,489000	0,66	-0,452400	
27,500000	0,66	-0,446140	
27,511000	0,66	-0,433380	
27,522000	0,66	-0,425440	
27,533000	0,66	-0,428310	
27,544000	0,66	-0,452090	
27,555000	0,66	-0,459860	
27,566000	0,66	-0,447580	
27,577000	0,66	-0,451460	
27,588000	0,66	-0,463450	
27,599000	0,66	-0,467710	
27,610000	0,66	-0,466220	
27,621000	0,66	-0,476190	
27,632000	0,66	-0,478580	
27,643000	0,66	-0,472820	
27,654000	0,66	-0,474590	
27,665000	0,66	-0,477810	
27,676000	0,66	-0,479410	
27,687000	0,66	-0,475330	
27,698000	0,66	-0,476050	
27,709000	0,66	-0,471080	
27,720000	0,66	-0,474480	
27,731000	0,66	-0,464400	
27,742000	0,66	-0,446580	
27,753000	0,66	-0,432210	
27,764000	0,66	-0,442210	
27,775000	0,66	-0,447090	
27,786000	0,66	-0,457460	
27,797000	0,66	-0,434730	
27,808000	0,66	-0,424340	
27,819000	0,66	-0,431560	
27,830000	0,66	-0,433470	
27,841000	0,66	-0,425740	
27,852000	0,66	-0,433730	
27,863000	0,66	-0,434650	
27,874000	0,66	-0,440010	
27,885000	0,66	-0,440090	
27,896000	0,66	-0,453490	
27,907000	0,66	-0,457680	
27,918000	0,66	-0,452170	
27,929000	0,66	-0,455810	
27,940000	0,66	-0,473260	
27,951000	0,66	-0,476880	
27,962000	0,66	-0,476490	
27,973000	0,66	-0,487110	
27,984000	0,66	-0,472910	
27,995000	0,66	-0,474590	
28,006000	0,66	-0,479530	
28,017000	0,66	-0,472470	
28,028000	0,66	-0,469420	
28,039000	0,66	-0,465300	
28,050000	0,66	-0,450140	
28,061000	0,66	-0,455230	
28,072000	0,66	-0,466730	
28,083000	0,66	-0,476900	
28,094000	0,66	-0,483360	
28,105000	0,66	-0,467840	
28,116000	0,66	-0,462940	
28,127000	0,66	-0,465490	
28,138000	0,66	-0,465410	
28,149000	0,66	-0,472940	
28,160000	0,66	-0,486680	
28,171000	0,66	-0,469100	
28,182000	0,66	-0,459930	
28,193000	0,66	-0,472870	
28,204000	0,66	-0,472980	
28,215000	0,66	-0,471350	
28,226000	0,66	-0,472400	
28,237000	0,66	-0,462060	
28,248000	0,66	-0,451200	
28,259000	0,66	-0,448360	
28,270000	0,66	-0,451300	
28,281000	0,66	-0,452180	
28,292000	0,66	-0,448990	
28,303000	0,66	-0,447460	
28,314000	0,66	-0,445750	
28,325000	0,66	-0,462060	
28,336000	0,66	-0,482660	
28,347000	0,66	-0,484060	
28,358000	0,66	-0,485910	
28,369000	0,66	-0,483580	
28,380000	0,66	-0,465440	
28,391000	0,66	-0,445230	
28,402000	0,66	-0,445550	
28,413000	0,66	-0,451850	
28,424000	0,66	-0,459170	
28,435000	0,66	-0,466330	
28,446000	0,66	-0,469640	
28,457000	0,66	-0,482060	
28,468000	0,66	-0,475020	
28,479000	0,66	-0,476770	
28,490000	0,66	-0,472630	
28,501000	0,66	-0,471800	
28,512000	0,66	-0,476290	
28,523000	0,66	-0,460870	
28,534000	0,66	-0,469980	
28,545000	0,66	-0,476130	
28,556000	0,66	-0,472580	
28,567000	0,66	-0,475160	
28,578000	0,66	-0,473170	
28,589000	0,66	-0,461030	
28,600000	0,66	-0,471780	
28,611000	0,66	-0,470150	
28,622000	0,66	-0,468960	
28,633000	0,66	-0,471560	
28,644000	0,66	-0,469290	
28,655000	0,66	-0,469640	
28,666000	0,66	-0,466760	
28,677000	0,66	-0,472590	
28,688000	0,66	-0,469780	
28,699000	0,66	-0,465630	
28,710000	0,66	-0,466390	
28,721000	0,66	-0,467810	
28,732000	0,66	-0,466780	
28,743000	0,66	-0,466310	
28,754000	0,66	-0,472640	
28,765000	0,66	-0,473980	
28,776000	0,66	-0,462340	
28,787000	0,66	-0,465630	
28,798000	0,66	-0,466130	
28,809000	0,66	-0,465880	
28,820000	0,66	-0,460450	
28,831000	0,66	-0,457710	
28,842000	0,66	-0,468400	
28,853000	0,66	-0,465620	
28,864000	0,66	-0,461260	
28,875000	0,66	-0,469120	
28,886000	0,66	-0,464520	
28,897000	0,66	-0,461040	
28,908000	0,66	-0,454780	
28,919000	0,66	-0,460020	
28,930000	0,66	-0,466500	
28,941000	0,66	-0,465860	
28,952000	0,66	-0,481800	
28,963000	0,66	-0,483050	
28,974000	0,66	-0,474950	
28,985000	0,66	-0,481230	
28,996000	0,66	-0,485040	
29,007000	0,66	-0,490830	
29,018000	0,66	-0,485020	
29,029000	0,66	-0,471620	
29,040000	0,66	-0,467170	
29,051000	0,66	-0,460250	
29,062000	0,66	-0,461110	
29,073000	0,66	-0,463860	
29,084000	0,66	-0,461350	
29,095000	0,66	-0,473460	
29,106000	0,66	-0,473750	
29,117000	0,66	-0,465630	
29,128000	0,66	-0,465340	
29,139000	0,66	-0,455450	
29,150000	0,66	-0,444630	
29,161000	0,66	-0,449080	
29,172000	0,66	-0,443180	
29,183000	0,66	-0,436400	
29,194000	0,66	-0,447740	
29,205000	0,66	-0,450820	
29,216000	0,66	-0,455210	
29,227000	0,66	-0,453720	
29,238000	0,66	-0,447140	
29,249000	0,66	-0,453130	
29,260000	0,66	-0,459200	
29,271000	0,66	-0,459740	
29,282000	0,66	-0,445340	
29,293000	0,66	-0,444710	
29,304000	0,66	-0,451440	
29,315000	0,66	-0,463910	
29,326000	0,66	-0,470020	
29,337000	0,66	-0,459650	
29,348000	0,66	-0,457450	
29,359000	0,66	-0,458420	
29,370000	0,66	-0,454620	
29,381000	0,66	-0,465540	
29,392000	0,66	-0,460740	
29,403000	0,66	-0,456830	
29,414000	0,66	-0,440040	
29,425000	0,66	-0,446970	
29,436000	0,66	-0,456020	
29,447000	0,66	-0,468940	
29,458000	0,66	-0,449290	
29,469000	0,66	-0,466090	
29,480000	0,66	-0,476110	
29,491000	0,66	-0,468840	
29,502000	0,66	-0,465850	
29,513000	0,66	-0,459560	
29,524000	0,66	-0,447860	
29,535000	0,66	-0,434030	
29,546000	0,66	-0,439650	
29,557000	0,66	-0,451100	
29,568000	0,66	-0,454430	
29,579000	0,66	-0,461420	
29,590000	0,66	-0,459000	
29,601000	0,66	-0,456040	
29,612000	0,66	-0,454340	
29,623000	0,66	-0,448240	
29,634000	0,66	-0,444340	
29,645000	0,66	-0,444360	
29,656000	0,66	-0,450350	
29,667000	0,66	-0,452780	
29,678000	0,66	-0,452600	
29,689000	0,66	-0,452670	
29,700000	0,66	-0,453580	
29,711000	0,66	-0,462420	
29,722000	0,66	-0,460370	
29,733000	0,66	-0,450990	
29,744000	0,66	-0,447220	
29,755000	0,66	-0,448940	
29,766000	0,66	-0,443170	
29,777000	0,66	-0,439850	
29,788000	0,66	-0,442050	
29,799000	0,66	-0,445160	
29,810000	0,66	-0,442310	
29,821000	0,66	-0,448530	
29,832000	0,66	-0,446890	
29,843000	0,66	-0,452090	
29,854000	0,66	-0,453030	
29,865000	0,66	-0,453620	
29,876000	0,66	-0,460940	
29,887000	0,66	-0,467070	
29,898000	0,66	-0,459890	
29,909000	0,66	-0,451350	
29,920000	0,66	-0,466470	
29,931000	0,66	-0,465540	
29,942000	0,66	-0,461130	
29,953000	0,66	-0,439320	
29,964000	0,66	-0,433600	
29,975000	0,66	-0,442160	
29,986000	0,66	-0,440490	
29,997000	0,66	-0,451820	
30,008000	0,66	-0,462800	
30,019000	0,66	-0,478850	
30,030000	0,66	-0,465050	
30,041000	0,66	-0,457620	
30,052000	0,66	-0,464380	
30,063000	0,66	-0,455740	
30,074000	0,66	-0,440870	
30,085000	0,66	-0,456030	
30,096000	0,66	-0,467330	
30,107000	0,66	-0,471740	
30,118000	0,66	-0,464720	
30,129000	0,66	-0,450100	
30,140000	0,66	-0,445420	
30,151000	0,66	-0,449140	
30,162000	0,66	-0,456240	
30,173000	0,66	-0,466570	
30,184000	0,66	-0,467350	
30,195000	0,66	-0,479300	
30,206000	0,66	-0,482790	
30,217000	0,66	-0,470440	
30,228000	0,66	-0,451970	
30,239000	0,66	-0,455810	
30,250000	0,66	-0,470730	
30,261000	0,66	-0,478380	
30,272000	0,66	-0,484840	
30,283000	0,66	-0,493850	
30,294000	0,66	-0,488250	
30,305000	0,66	-0,463910	
30,316000	0,66	-0,462970	
30,327000	0,66	-0,477930	
30,338000	0,66	-0,485080	
30,349000	0,66	-0,488750	
30,360000	0,66	-0,478910	
30,371000	0,66	-0,464500	
30,382000	0,66	-0,451960	
30,393000	0,66	-0,441230	
30,404000	0,66	-0,446020	
30,415000	0,66	-0,452210	
30,426000	0,66	-0,458820	
30,437000	0,66	-0,463660	
30,448000	0,66	-0,442330	
30,459000	0,66	-0,437970	
30,470000	0,66	-0,442200	
30,481000	0,66	-0,437940	
30,492000	0,66	-0,448010	
30,503000	0,66	-0,456880	
30,514000	0,66	-0,455390	
30,525000	0,66	-0,464850	
30,536000	0,66	-0,479870	
30,547000	0,66	-0,464100	
30,558000	0,66	-0,463670	
30,569000	0,66	-0,481840	
30,580000	0,66	-0,470490	
30,591000	0,66	-0,461440	
30,602000	0,66	-0,461880	
30,613000	0,66	-0,452100	
30,624000	0,66	-0,468340	
30,635000	0,66	-0,482370	
30,646000	0,66	-0,476060	
30,657000	0,66	-0,484730	
30,668000	0,66	-0,475050	
30,679000	0,66	-0,478480	
30,690000	0,66	-0,472300	
30,701000	0,66	-0,459180	
30,712000	0,66	-0,459180	
30,723000	0,66	-0,476480	
30,734000	0,66	-0,468700	
30,745000	0,66	-0,457860	
30,756000	0,66	-0,449300	
30,767000	0,66	-0,459720	
30,778000	0,66	-0,467630	
30,789000	0,66	-0,470850	
30,800000	0,66	-0,468550	
30,811000	0,66	-0,462540	
30,822000	0,66	-0,474910	
30,833000	0,66	-0,483850	
30,844000	0,66	-0,474090	
30,855000	0,66	-0,481720	
30,866000	0,66	-0,494100	
30,877000	0,66	-0,485210	
30,888000	0,66	-0,487790	
30,899000	0,66	-0,486250	
30,910000	0,66	-0,468620	
30,921000	0,66	-0,453660	
30,932000	0,66	-0,465700	
30,943000	0,66	-0,468290	
30,954000	0,66	-0,471150	
30,965000	0,66	-0,473570	
30,976000	0,66	-0,473550	
30,987000	0,66	-0,477270	
30,998000	0,66	-0,473190	
31,009000	0,66	-0,469030	
31,020000	0,66	-0,481960	
31,031000	0,66	-0,485810	
31,042000	0,66	-0,477400	
31,053000	0,66	-0,474140	
31,064000	0,66	-0,462900	
31,075000	0,66	-0,456630	
31,086000	0,66	-0,469440	
31,097000	0,66	-0,471500	
31,108000	0,66	-0,459710	
31,119000	0,66	-0,460450	
31,130000	0,66	-0,465410	
31,141000	0,66	-0,477610	
31,152000	0,66	-0,490530	
31,163000	0,66	-0,497350	
31,174000	0,66	-0,499150	
31,185000	0,66	-0,498050	
31,196000	0,66	-0,485640	
31,207000	0,66	-0,464560	
31,218000	0,66	-0,458630	
31,229000	0,66	-0,448750	
31,240000	0,66	-0,441670	
31,251000	0,66	-0,439560	
31,262000	0,66	-0,440420	
31,273000	0,66	-0,443520	
31,284000	0,66	-0,464860	
31,295000	0,66	-0,481030	
31,306000	0,66	-0,488210	
31,317000	0,66	-0,500770	
31,328000	0,66	-0,488080	
31,339000	0,66	-0,481740	
31,350000	0,66	-0,475670	
31,361000	0,66	-0,461040	
31,372000	0,66	-0,446640	
31,383000	0,66	-0,450120	
31,394000	0,66	-0,456470	
31,405000	0,66	-0,474510	
31,416000	0,66	-0,458920	
31,427000	0,66	-0,456810	
31,438000	0,66	-0,468120	
31,449000	0,66	-0,461860	
31,460000	0,66	-0,447960	
31,471000	0,66	-0,458240	
31,482000	0,66	-0,464890	
31,493000	0,66	-0,465940	
31,504000	0,66	-0,469150	
31,515000	0,66	-0,473420	
31,526000	0,66	-0,490380	
31,537000	0,66	-0,491510	
31,548000	0,66	-0,477960	
31,559000	0,66	-0,481520	
31,570000	0,66	-0,481260	
31,581000	0,66	-0,472700	
31,592000	0,66	-0,452540	
31,603000	0,66	-0,455980	
31,614000	0,66	-0,472320	
31,625000	0,66	-0,464490	
31,636000	0,66	-0,446740	
31,647000	0,66	-0,449670	
31,658000	0,66	-0,464490	
31,669000	0,66	-0,471340	
31,680000	0,66	-0,472190	
31,691000	0,66	-0,479840	
31,702000	0,66	-0,478010	
31,713000	0,66	-0,467660	
31,724000	0,66	-0,464470	
31,735000	0,66	-0,465720	
31,746000	0,66	-0,472520	
31,757000	0,66	-0,482370	
31,768000	0,66	-0,482830	
31,779000	0,66	-0,474280	
31,790000	0,66	-0,473200	
31,801000	0,66	-0,484570	
31,812000	0,66	-0,493860	
31,823000	0,66	-0,490440	
31,834000	0,66	-0,483890	
31,845000	0,66	-0,474170	
31,856000	0,66	-0,475800	
31,867000	0,66	-0,474050	
31,878000	0,66	-0,488800	
31,889000	0,66	-0,495330	
31,900000	0,66	-0,493400	
31,911000	0,66	-0,474480	
31,922000	0,66	-0,479970	
31,933000	0,66	-0,506170	
31,944000	0,66	-0,527940	
31,955000	0,66	-0,526440	
31,966000	0,66	-0,519630	
31,977000	0,66	-0,505250	
31,988000	0,66	-0,501650	
31,999000	0,66	-0,497350	
32,010000	0,66	-0,489950	
32,021000	0,66	-0,482900	
32,032000	0,66	-0,492080	
32,043000	0,66	-0,483110	
32,054000	0,66	-0,485780	
32,065000	0,66	-0,502610	
32,076000	0,66	-0,506880	
32,087000	0,66	-0,488590	
32,098000	0,66	-0,488130	
32,109000	0,66	-0,506340	
32,120000	0,66	-0,521160	
32,131000	0,66	-0,513340	
32,142000	0,66	-0,518100	
32,153000	0,66	-0,505260	
32,164000	0,66	-0,503170	
32,175000	0,66	-0,506190	
32,186000	0,66	-0,502790	
32,197000	0,66	-0,493660	
32,208000	0,66	-0,496050	
32,219000	0,66	-0,490990	
32,230000	0,66	-0,490810	
32,241000	0,66	-0,486540	
32,252000	0,66	-0,485350	
32,263000	0,66	-0,487260	
32,274000	0,66	-0,486040	
32,285000	0,66	-0,489950	
32,296000	0,66	-0,503670	
32,307000	0,66	-0,515390	
32,318000	0,66	-0,514390	
32,329000	0,66	-0,499510	
32,340000	0,66	-0,492330	
32,351000	0,66	-0,495310	
32,362000	0,66	-0,491200	
32,373000	0,66	-0,491070	
32,384000	0,66	-0,489970	
32,395000	0,66	-0,486380	
32,406000	0,66	-0,495100	
32,417000	0,66	-0,502610	
32,428000	0,66	-0,497330	
32,439000	0,66	-0,486110	
32,450000	0,66	-0,476180	
32,461000	0,66	-0,470010	
32,472000	0,66	-0,466160	
32,483000	0,66	-0,468830	
32,494000	0,66	-0,477560	
32,505000	0,66	-0,480730	
32,516000	0,66	-0,471180	
32,527000	0,66	-0,460730	
32,538000	0,66	-0,469720	
32,549000	0,66	-0,478390	
32,560000	0,66	-0,477950	
32,571000	0,66	-0,484140	
32,582000	0,66	-0,475080	
32,593000	0,66	-0,473100	
32,604000	0,66	-0,478430	
32,615000	0,66	-0,474990	
32,626000	0,66	-0,465260	
32,637000	0,66	-0,478870	
32,648000	0,66	-0,490780	
32,659000	0,66	-0,489930	
32,670000	0,66	-0,483460	
32,681000	0,66	-0,485970	
32,692000	0,66	-0,487230	
32,703000	0,66	-0,484820	
32,714000	0,66	-0,473490	
32,725000	0,66	-0,477010	
32,736000	0,66	-0,475800	
32,747000	0,66	-0,483650	
32,758000	0,66	-0,502010	
32,769000	0,66	-0,508660	
32,780000	0,66	-0,505160	
32,791000	0,66	-0,501250	
32,802000	0,66	-0,499310	
32,813000	0,66	-0,500130	
32,824000	0,66	-0,495430	
32,835000	0,66	-0,486200	
32,846000	0,66	-0,487870	
32,857000	0,66	-0,480830	
32,868000	0,66	-0,479610	
32,879000	0,66	-0,483270	
32,890000	0,66	-0,507750	
32,901000	0,66	-0,514930	
32,912000	0,66	-0,517880	
32,923000	0,66	-0,506580	
32,934000	0,66	-0,512010	
32,945000	0,66	-0,515530	
32,956000	0,66	-0,509110	
32,967000	0,66	-0,506180	
32,978000	0,66	-0,498180	
32,989000	0,66	-0,495220	
33,000000	0,66	-0,480760	
33,011000	0,66	-0,466670	
33,022000	0,66	-0,467050	
33,033000	0,66	-0,481490	
33,044000	0,66	-0,495870	
33,055000	0,66	-0,488440	
33,066000	0,66	-0,480530	
33,077000	0,66	-0,477290	
33,088000	0,66	-0,470280	
33,099000	0,66	-0,471730	
33,110000	0,66	-0,474270	
33,121000	0,66	-0,476830	
33,132000	0,66	-0,482340	
33,143000	0,66	-0,488070	
33,154000	0,66	-0,496870	
33,165000	0,66	-0,496900	
33,176000	0,66	-0,493980	
33,187000	0,66	-0,493640	
33,198000	0,66	-0,489530	
33,209000	0,66	-0,495870	
33,220000	0,66	-0,498710	
33,231000	0,66	-0,488840	
33,242000	0,66	-0,479900	
33,253000	0,66	-0,475140	
33,264000	0,66	-0,477470	
33,275000	0,66	-0,484870	
33,286000	0,66	-0,489100	
33,297000	0,66	-0,493730	
33,308000	0,66	-0,503100	
33,319000	0,66	-0,494070	
33,330000	0,66	-0,505160	
33,341000	0,66	-0,519510	
33,352000	0,66	-0,507120	
33,363000	0,66	-0,503190	
33,374000	0,66	-0,493070	
33,385000	0,66	-0,497860	
33,396000	0,66	-0,504590	
33,407000	0,66	-0,506250	
33,418000	0,66	-0,511940	
33,429000	0,66	-0,503500	
33,440000	0,66	-0,498450	
33,451000	0,66	-0,485220	
33,462000	0,66	-0,485060	
33,473000	0,66	-0,491260	
33,484000	0,66	-0,492920	
33,495000	0,66	-0,495150	
33,506000	0,66	-0,489870	
33,517000	0,66	-0,494670	
33,528000	0,66	-0,500640	
33,539000	0,66	-0,500230	
33,550000	0,66	-0,495490	
33,561000	0,66	-0,482030	
33,572000	0,66	-0,480740	
33,583000	0,66	-0,490590	
33,594000	0,66	-0,495050	
33,605000	0,66	-0,495170	
33,616000	0,66	-0,496330	
33,627000	0,66	-0,508580	
33,638000	0,66	-0,496570	
33,649000	0,66	-0,486250	
33,660000	0,66	-0,494940	
33,671000	0,66	-0,511230	
33,682000	0,66	-0,529470	
33,693000	0,66	-0,521410	
33,704000	0,66	-0,506770	
33,715000	0,66	-0,503560	
33,726000	0,66	-0,507460	
33,737000	0,66	-0,503200	
33,748000	0,66	-0,504970	
33,759000	0,66	-0,516640	
33,770000	0,66	-0,512720	
33,781000	0,66	-0,498550	
33,792000	0,66	-0,497680	
33,803000	0,66	-0,501430	
33,814000	0,66	-0,501630	
33,825000	0,66	-0,505500	
33,836000	0,66	-0,506140	
33,847000	0,66	-0,503250	
33,858000	0,66	-0,505450	
33,869000	0,66	-0,512020	
33,880000	0,66	-0,511290	
33,891000	0,66	-0,506230	
33,902000	0,66	-0,509430	
33,913000	0,66	-0,508350	
33,924000	0,66	-0,510790	
33,935000	0,66	-0,511880	
33,946000	0,66	-0,511360	
33,957000	0,66	-0,502830	
33,968000	0,66	-0,501140	
33,979000	0,66	-0,507450	
33,990000	0,66	-0,512050	
34,001000	0,66	-0,500310	
34,012000	0,66	-0,498590	
34,023000	0,66	-0,493370	
34,034000	0,66	-0,497160	
34,045000	0,66	-0,500540	
34,056000	0,66	-0,496860	
34,067000	0,66	-0,493020	
34,078000	0,66	-0,506300	
34,089000	0,66	-0,511900	
34,100000	0,66	-0,512360	
34,111000	0,66	-0,498010	
34,122000	0,66	-0,510640	
34,133000	0,66	-0,516460	
34,144000	0,66	-0,524270	
34,155000	0,66	-0,519880	
34,166000	0,66	-0,519780	
34,177000	0,66	-0,512420	
34,188000	0,66	-0,512940	
34,199000	0,66	-0,491520	
34,210000	0,66	-0,483420	
34,221000	0,66	-0,481690	
34,232000	0,66	-0,486400	
34,243000	0,66	-0,495360	
34,254000	0,66	-0,503400	
34,265000	0,66	-0,521650	
34,276000	0,66	-0,514920	
34,287000	0,66	-0,526720	
34,298000	0,66	-0,513990	
34,309000	0,66	-0,503270	
34,320000	0,66	-0,527530	
34,331000	0,66	-0,540910	
34,342000	0,66	-0,545510	
34,353000	0,66	-0,548260	
34,364000	0,66	-0,532980	
34,375000	0,66	-0,514880	
34,386000	0,66	-0,509730	
34,397000	0,66	-0,508830	
34,408000	0,66	-0,515870	
34,419000	0,66	-0,525890	
34,430000	0,66	-0,525730	
34,441000	0,66	-0,534800	
34,452000	0,66	-0,537440	
34,463000	0,66	-0,545650	
34,474000	0,66	-0,545370	
34,485000	0,66	-0,544830	
34,496000	0,66	-0,533570	
34,507000	0,66	-0,519570	
34,518000	0,66	-0,522120	
34,529000	0,66	-0,519560	
34,540000	0,66	-0,509460	
34,551000	0,66	-0,504500	
34,562000	0,66	-0,501920	
34,573000	0,66	-0,497660	
34,584000	0,66	-0,504280	
34,595000	0,66	-0,516770	
34,606000	0,66	-0,519990	
34,617000	0,66	-0,521820	
34,628000	0,66	-0,531250	
34,639000	0,66	-0,526750	
34,650000	0,66	-0,528830	
34,661000	0,66	-0,535310	
34,672000	0,66	-0,530020	
34,683000	0,66	-0,527570	
34,694000	0,66	-0,535480	
34,705000	0,66	-0,520230	
34,716000	0,66	-0,505000	
34,727000	0,66	-0,529490	
34,738000	0,66	-0,532930	
34,749000	0,66	-0,524710	
34,760000	0,66	-0,513470	
34,771000	0,66	-0,508650	
34,782000	0,66	-0,501660	
34,793000	0,66	-0,489010	
34,804000	0,66	-0,491470	
34,815000	0,66	-0,491840	
34,826000	0,66	-0,491120	
34,837000	0,66	-0,487320	
34,848000	0,66	-0,497370	
34,859000	0,66	-0,504950	
34,870000	0,66	-0,490750	
34,881000	0,66	-0,490110	
34,892000	0,66	-0,493950	
34,903000	0,66	-0,485390	
34,914000	0,66	-0,491000	
34,925000	0,66	-0,490240	
34,936000	0,66	-0,498090	
34,947000	0,66	-0,487150	
34,958000	0,66	-0,495230	
34,969000	0,66	-0,509200	
34,980000	0,66	-0,512000	
34,991000	0,66	-0,499190	
35,002000	0,66	-0,502520	
35,013000	0,66	-0,498300	
35,024000	0,66	-0,502720	
35,035000	0,66	-0,502020	
35,046000	0,66	-0,499270	
35,057000	0,66	-0,495710	
35,068000	0,66	-0,497650	
35,079000	0,66	-0,497710	
35,090000	0,66	-0,498390	
35,101000	0,66	-0,496630	
35,112000	0,66	-0,485590	
35,123000	0,66	-0,490700	
35,134000	0,66	-0,509090	
35,145000	0,66	-0,524170	
35,156000	0,66	-0,526330	
35,167000	0,66	-0,516940	
35,178000	0,66	-0,503910	
35,189000	0,66	-0,500590	
35,200000	0,66	-0,497620	
35,211000	0,66	-0,496050	
35,222000	0,66	-0,503200	
35,233000	0,66	-0,519460	
35,244000	0,66	-0,523890	
35,255000	0,66	-0,504050	
35,266000	0,66	-0,491600	
35,277000	0,66	-0,493740	
35,288000	0,66	-0,505590	
35,299000	0,66	-0,512610	
35,310000	0,66	-0,514570	
35,321000	0,66	-0,510030	
35,332000	0,66	-0,509390	
35,343000	0,66	-0,509910	
35,354000	0,66	-0,509930	
35,365000	0,66	-0,526150	
35,376000	0,66	-0,538370	
35,387000	0,66	-0,528080	
35,398000	0,66	-0,522060	
35,409000	0,66	-0,521770	
35,420000	0,66	-0,513660	
35,431000	0,66	-0,504130	
35,442000	0,66	-0,507420	
35,453000	0,66	-0,511120	
35,464000	0,66	-0,523180	
35,475000	0,66	-0,532680	
35,486000	0,66	-0,529260	
35,497000	0,66	-0,524130	
35,508000	0,66	-0,511150	
35,519000	0,66	-0,511570	
35,530000	0,66	-0,513590	
35,541000	0,66	-0,503710	
35,552000	0,66	-0,508050	
35,563000	0,66	-0,509490	
35,574000	0,66	-0,522570	
35,585000	0,66	-0,522390	
35,596000	0,66	-0,521330	
35,607000	0,66	-0,523410	
35,618000	0,66	-0,537050	
35,629000	0,66	-0,544210	
35,640000	0,66	-0,536360	
35,651000	0,66	-0,532240	
35,662000	0,66	-0,513400	
35,673000	0,66	-0,511650	
35,684000	0,66	-0,518400	
35,695000	0,66	-0,511700	
35,706000	0,66	-0,512770	
35,717000	0,66	-0,516720	
35,728000	0,66	-0,523300	
35,739000	0,66	-0,516390	
35,750000	0,66	-0,518860	
35,761000	0,66	-0,505150	
35,772000	0,66	-0,499700	
35,783000	0,66	-0,498300	
35,794000	0,66	-0,513960	
35,805000	0,66	-0,515880	
35,816000	0,66	-0,523630	
35,827000	0,66	-0,524840	
35,838000	0,66	-0,520250	
35,849000	0,66	-0,523550	
35,860000	0,66	-0,531010	
35,871000	0,66	-0,525500	
35,882000	0,66	-0,522420	
35,893000	0,66	-0,529950	
35,904000	0,66	-0,529360	
35,915000	0,66	-0,535760	
35,926000	0,66	-0,539270	
35,937000	0,66	-0,527000	
35,948000	0,66	-0,523130	
35,959000	0,66	-0,529020	
35,970000	0,66	-0,521580	
35,981000	0,66	-0,502610	
35,992000	0,66	-0,498030	
36,003000	0,66	-0,498640	
36,014000	0,66	-0,496210	
36,025000	0,66	-0,504470	
36,036000	0,66	-0,514140	
36,047000	0,66	-0,502120	
36,058000	0,66	-0,494120	
36,069000	0,66	-0,488880	
36,080000	0,66	-0,495180	
36,091000	0,66	-0,510130	
36,102000	0,66	-0,502070	
36,113000	0,66	-0,496760	
36,124000	0,66	-0,507060	
36,135000	0,66	-0,509490	
36,146000	0,66	-0,515990	
36,157000	0,66	-0,522130	
36,168000	0,66	-0,522370	
36,179000	0,66	-0,525060	
36,190000	0,66	-0,507800	
36,201000	0,66	-0,525060	
36,212000	0,66	-0,528340	
36,223000	0,66	-0,518990	
36,234000	0,66	-0,522220	
36,245000	0,66	-0,515610	
36,256000	0,66	-0,523060	
36,267000	0,66	-0,528110	
36,278000	0,66	-0,520590	
36,289000	0,66	-0,529960	
36,300000	0,66	-0,542870	
36,311000	0,66	-0,544450	
36,322000	0,66	-0,548160	
36,333000	0,66	-0,546170	
36,344000	0,66	-0,530960	
36,355000	0,66	-0,510390	
36,366000	0,66	-0,494960	
36,377000	0,66	-0,482730	
36,388000	0,66	-0,490170	
36,399000	0,66	-0,495750	
36,410000	0,66	-0,504800	
36,421000	0,66	-0,497490	
36,432000	0,66	-0,498370	
36,443000	0,66	-0,515070	
36,454000	0,66	-0,518950	
36,465000	0,66	-0,519530	
36,476000	0,66	-0,528200	
36,487000	0,66	-0,533780	
36,498000	0,66	-0,549210	
36,509000	0,66	-0,544690	
36,520000	0,66	-0,535310	
36,531000	0,66	-0,533450	
36,542000	0,66	-0,536050	
36,553000	0,66	-0,540930	
36,564000	0,66	-0,540870	
36,575000	0,66	-0,543720	
36,586000	0,66	-0,547040	
36,597000	0,66	-0,541650	
36,608000	0,66	-0,542460	
36,619000	0,66	-0,537040	
36,630000	0,66	-0,519200	
36,641000	0,66	-0,520970	
36,652000	0,66	-0,543030	
36,663000	0,66	-0,555860	
36,674000	0,66	-0,543400	
36,685000	0,66	-0,530700	
36,696000	0,66	-0,529070	
36,707000	0,66	-0,526090	
36,718000	0,66	-0,538750	
36,729000	0,66	-0,547030	
36,740000	0,66	-0,545560	
36,751000	0,66	-0,532350	
36,762000	0,66	-0,530130	
36,773000	0,66	-0,534520	
36,784000	0,66	-0,536940	
36,795000	0,66	-0,527760	
36,806000	0,66	-0,543710	
36,817000	0,66	-0,542270	
36,828000	0,66	-0,547590	
36,839000	0,66	-0,557530	
36,850000	0,66	-0,552710	
36,861000	0,66	-0,551350	
36,872000	0,66	-0,561790	
36,883000	0,66	-0,569040	
36,894000	0,66	-0,572840	
36,905000	0,66	-0,568950	
36,916000	0,66	-0,567890	
36,927000	0,66	-0,578660	
36,938000	0,66	-0,576530	
36,949000	0,66	-0,566860	
36,960000	0,66	-0,547820	
36,971000	0,66	-0,555670	
36,982000	0,66	-0,577790	
36,993000	0,66	-0,580350	
37,004000	0,66	-0,578560	
37,015000	0,66	-0,573540	
37,026000	0,66	-0,567870	
37,037000	0,66	-0,557950	
37,048000	0,66	-0,570540	
37,059000	0,66	-0,582760	
37,070000	0,66	-0,573200	
37,081000	0,66	-0,565740	
37,092000	0,66	-0,566980	
37,103000	0,66	-0,560340	
37,114000	0,66	-0,567450	
37,125000	0,66	-0,576090	
37,136000	0,66	-0,582510	
37,147000	0,66	-0,584920	
37,158000	0,66	-0,590400	
37,169000	0,66	-0,588970	
37,180000	0,66	-0,574210	
37,191000	0,66	-0,578850	
37,202000	0,66	-0,589270	
37,213000	0,66	-0,580450	
37,224000	0,66	-0,563120	
37,235000	0,66	-0,563120	
37,246000	0,66	-0,572510	
37,257000	0,66	-0,576160	
37,268000	0,66	-0,576800	
37,279000	0,66	-0,577140	
37,290000	0,66	-0,577710	
37,301000	0,66	-0,592680	
37,312000	0,66	-0,608820	
37,323000	0,66	-0,612570	
37,334000	0,66	-0,609920	
37,345000	0,66	-0,605730	
37,356000	0,66	-0,607390	
37,367000	0,66	-0,601480	
37,378000	0,66	-0,601740	
37,389000	0,66	-0,612120	
37,400000	0,66	-0,604310	
37,411000	0,66	-0,605750	
37,422000	0,66	-0,610750	
37,433000	0,66	-0,608280	
37,444000	0,66	-0,610580	
37,455000	0,66	-0,595640	
37,466000	0,66	-0,588740	
37,477000	0,66	-0,577270	
37,488000	0,66	-0,581520	
37,499000	0,66	-0,576860	
37,510000	0,66	-0,583190	
37,521000	0,66	-0,584460	
37,532000	0,66	-0,585900	
37,543000	0,66	-0,584940	
37,554000	0,66	-0,597030	
37,565000	0,66	-0,602050	
37,576000	0,66	-0,609020	
37,587000	0,66	-0,612570	
37,598000	0,66	-0,601940	
37,609000	0,66	-0,609430	
37,620000	0,66	-0,609770	
37,631000	0,66	-0,601530	
37,642000	0,66	-0,602250	
37,653000	0,66	-0,610450	
37,664000	0,66	-0,614590	
37,675000	0,66	-0,617670	
37,686000	0,66	-0,622900	
37,697000	0,66	-0,616250	
37,708000	0,66	-0,614810	
37,719000	0,66	-0,617450	
37,730000	0,66	-0,628380	
37,741000	0,66	-0,632770	
37,752000	0,66	-0,621940	
37,763000	0,66	-0,602690	
37,774000	0,66	-0,597310	
37,785000	0,66	-0,599230	
37,796000	0,66	-0,593360	
37,807000	0,66	-0,582890	
37,818000	0,66	-0,576110	
37,829000	0,66	-0,586230	
37,840000	0,66	-0,596810	
37,851000	0,66	-0,600840	
37,862000	0,66	-0,594670	
37,873000	0,66	-0,595360	
37,884000	0,66	-0,601110	
37,895000	0,66	-0,604210	
37,906000	0,66	-0,599280	
37,917000	0,66	-0,605060	
37,928000	0,66	-0,614210	
37,939000	0,66	-0,620100	
37,950000	0,66	-0,625850	
37,961000	0,66	-0,622690	
37,972000	0,66	-0,616180	
37,983000	0,66	-0,616740	
37,994000	0,66	-0,601280	
38,005000	0,66	-0,586340	
38,016000	0,66	-0,584100	
38,027000	0,66	-0,579370	
38,038000	0,66	-0,593530	
38,049000	0,66	-0,615230	
38,060000	0,66	-0,609370	
38,071000	0,66	-0,598570	
38,082000	0,66	-0,599900	
38,093000	0,66	-0,591970	
38,104000	0,66	-0,587380	
38,115000	0,66	-0,587810	
38,126000	0,66	-0,593650	
38,137000	0,66	-0,575090	
38,148000	0,66	-0,563530	
38,159000	0,66	-0,570650	
38,170000	0,66	-0,586020	
38,181000	0,66	-0,590560	
38,192000	0,66	-0,586980	
38,203000	0,66	-0,576930	
38,214000	0,66	-0,567000	
38,225000	0,66	-0,570410	
38,236000	0,66	-0,566830	
38,247000	0,66	-0,572600	
38,258000	0,66	-0,587610	
38,269000	0,66	-0,574320	
38,280000	0,66	-0,560170	
38,291000	0,66	-0,576640	
38,302000	0,66	-0,582050	
38,313000	0,66	-0,581670	
38,324000	0,66	-0,579940	
38,335000	0,66	-0,569690	
38,346000	0,66	-0,570880	
38,357000	0,66	-0,563820	
38,368000	0,66	-0,567510	
38,379000	0,66	-0,566580	
38,390000	0,66	-0,552570	
38,401000	0,66	-0,547700	
38,412000	0,66	-0,567200	
38,423000	0,66	-0,580580	
38,434000	0,66	-0,570190	
38,445000	0,66	-0,564040	
38,456000	0,66	-0,555910	
38,467000	0,66	-0,551930	
38,478000	0,66	-0,544850	
38,489000	0,66	-0,541170	
38,500000	0,66	-0,535180	
38,511000	0,66	-0,529430	
38,522000	0,66	-0,542890	
38,533000	0,66	-0,560630	
38,544000	0,66	-0,557590	
38,555000	0,66	-0,565530	
38,566000	0,66	-0,577390	
38,577000	0,66	-0,575860	
38,588000	0,66	-0,564600	
38,599000	0,66	-0,560200	
38,610000	0,66	-0,563980	
38,621000	0,66	-0,565050	
38,632000	0,66	-0,572790	
38,643000	0,66	-0,572800	
38,654000	0,66	-0,569720	
38,665000	0,66	-0,567520	
38,676000	0,66	-0,570580	
38,687000	0,66	-0,568800	
38,698000	0,66	-0,567590	
38,709000	0,66	-0,573550	
38,720000	0,66	-0,565670	
38,731000	0,66	-0,555700	
38,742000	0,66	-0,547410	
38,753000	0,66	-0,537510	
38,764000	0,66	-0,544520	
38,775000	0,66	-0,556220	
38,786000	0,66	-0,546700	
38,797000	0,66	-0,524320	
38,808000	0,66	-0,519780	
38,819000	0,66	-0,538250	
38,830000	0,66	-0,546170	
38,841000	0,66	-0,550210	
38,852000	0,66	-0,561180	
38,863000	0,66	-0,576310	
38,874000	0,66	-0,564350	
38,885000	0,66	-0,550360	
38,896000	0,66	-0,537240	
38,907000	0,66	-0,545760	
38,918000	0,66	-0,531620	
38,929000	0,66	-0,545060	
38,940000	0,66	-0,548580	
38,951000	0,66	-0,547230	
38,962000	0,66	-0,556320	
38,973000	0,66	-0,561890	
38,984000	0,66	-0,557190	
38,995000	0,66	-0,551200	
39,006000	0,66	-0,547270	
39,017000	0,66	-0,548490	
39,028000	0,66	-0,550250	
39,039000	0,66	-0,557120	
39,050000	0,66	-0,564650	
39,061000	0,66	-0,563060	
39,072000	0,66	-0,566560	
39,083000	0,66	-0,567380	
39,094000	0,66	-0,549720	
39,105000	0,66	-0,541150	
39,116000	0,66	-0,531490	
39,127000	0,66	-0,538270	
39,138000	0,66	-0,545620	
39,149000	0,66	-0,546340	
39,160000	0,66	-0,546220	
39,171000	0,66	-0,542900	
39,182000	0,66	-0,554610	
39,193000	0,66	-0,566060	
39,204000	0,66	-0,557870	
39,215000	0,66	-0,546480	
39,226000	0,66	-0,538910	
39,237000	0,66	-0,542250	
39,248000	0,66	-0,550890	
39,259000	0,66	-0,559100	
39,270000	0,66	-0,546210	
39,281000	0,66	-0,547120	
39,292000	0,66	-0,540000	
39,303000	0,66	-0,520210	
39,314000	0,66	-0,517330	
39,325000	0,66	-0,522520	
39,336000	0,66	-0,520130	
39,347000	0,66	-0,512790	
39,358000	0,66	-0,514010	
39,369000	0,66	-0,521020	
39,380000	0,66	-0,521950	
39,391000	0,66	-0,506550	
39,402000	0,66	-0,494560	
39,413000	0,66	-0,505890	
39,424000	0,66	-0,509830	
39,435000	0,66	-0,497600	
39,446000	0,66	-0,486350	
39,457000	0,66	-0,476670	
39,468000	0,66	-0,475010	
39,479000	0,66	-0,479010	
39,490000	0,66	-0,484240	
39,501000	0,66	-0,486950	
39,512000	0,66	-0,479480	
39,523000	0,66	-0,474300	
39,534000	0,66	-0,487240	
39,545000	0,66	-0,494230	
39,556000	0,66	-0,491770	
39,567000	0,66	-0,505910	
39,578000	0,66	-0,499740	
39,589000	0,66	-0,488150	
39,600000	0,66	-0,485880	
39,611000	0,66	-0,481450	
39,622000	0,66	-0,483170	
39,633000	0,66	-0,478130	
39,644000	0,66	-0,479570	
39,655000	0,66	-0,503180	
39,666000	0,66	-0,523730	
39,677000	0,66	-0,537850	
39,688000	0,66	-0,523710	
39,699000	0,66	-0,495080	
39,710000	0,66	-0,467410	
39,721000	0,66	-0,460080	
39,732000	0,66	-0,479930	
39,743000	0,66	-0,497610	
39,754000	0,66	-0,505990	
39,765000	0,66	-0,504080	
39,776000	0,66	-0,506220	
39,787000	0,66	-0,502980	
39,798000	0,66	-0,502340	
39,809000	0,66	-0,494760	
39,820000	0,66	-0,490780	
39,831000	0,66	-0,476520	
39,842000	0,66	-0,461300	
39,853000	0,66	-0,464880	
39,864000	0,66	-0,464920	
39,875000	0,66	-0,469070	
39,886000	0,66	-0,480540	
39,897000	0,66	-0,474440	
39,908000	0,66	-0,484360	
39,919000	0,66	-0,484080	
39,930000	0,66	-0,493090	
39,941000	0,66	-0,490770	
39,952000	0,66	-0,476620	
39,963000	0,66	-0,458670	
39,974000	0,66	-0,453140	
39,985000	0,66	-0,462260	
39,996000	0,66	-0,472770	
40,007000	0,66	-0,473890	
