Filepath	C:\Chromel\data\Analytik\Walther group\Guido\mechanosense\GCR260.SEQ\UV_VIS_2.CHL\17184.acd
Channel	UV_VIS_2

Sample Information:
Datasource	PC-8NN4M2J_local
Sequence	Analytik\Walther group\Guido\mechanosense\GCR260.SEQ
Sample	200717-12
Sample Number	316
Sample Position	RC2
Sample ID	17184
Comment	260-P5-3
QNT method	default
PGM file	single-component-3 40min 60C 0,4mLmin
Type	unknown
Status	finished
Date	17.07.2020
Time	18:39:25
Injection Volume (µl)	100,00
Dilution Factor	1,000000
Amount	1,000000
Weight	1,000000

Raw Data Header Information:
Time Min. (min)	0,000
Time Max. (min)	40,007
Raw-Time Min. (min)	0,000
Raw-Time Max. (min)	40,007
Data Points	3638
Detector	VWD3000.dll
Preferred Read Mode	Unknown
Write Mode	Unknown
Data System	Chromeleon
Version High	06
Version Low	80
Build No.	3160
File Format Version	11
Generation Type	8
File ID	239054205
File Status	16
GUID	c3382d04-c84b-11ea-b409-00184d71f7da
Signal Factor	0,000010
Signal Dimension	mAU
Signal Unit	Absorbance
Signal Min.	-1,35367
Signal Max.	96,655180
Channel Name	UV_VIS_2
Driver Name	VWD-3x00 Detector
Min. Step	66
Max. Step	66
Average Step	66

Signal Parameter Information:
Signal Info	WVL:556 nm
Wavelength	556 nm
	 




















Raw Data:
Time(min)	Step(sec)	Value(mAU)
0,000000	0,00	0,102290	
0,011000	0,66	0,101850	
0,022000	0,66	0,100470	
0,033000	0,66	0,119460	
0,044000	0,66	0,127730	
0,055000	0,66	0,123000	
0,066000	0,66	0,088060	
0,077000	0,66	0,075300	
0,088000	0,66	0,092470	
0,099000	0,66	0,085470	
0,110000	0,66	0,084160	
0,121000	0,66	0,101410	
0,132000	0,66	0,097370	
0,143000	0,66	0,087260	
0,154000	0,66	0,076420	
0,165000	0,66	0,075110	
0,176000	0,66	0,075890	
0,187000	0,66	0,058040	
0,198000	0,66	0,045410	
0,209000	0,66	0,048570	
0,220000	0,66	0,044980	
0,231000	0,66	0,033490	
0,242000	0,66	0,035170	
0,253000	0,66	0,034580	
0,264000	0,66	0,034650	
0,275000	0,66	0,033480	
0,286000	0,66	0,044610	
0,297000	0,66	0,054570	
0,308000	0,66	0,067160	
0,319000	0,66	0,059880	
0,330000	0,66	0,065620	
0,341000	0,66	0,083020	
0,352000	0,66	0,079350	
0,363000	0,66	0,068280	
0,374000	0,66	0,057700	
0,385000	0,66	0,056110	
0,396000	0,66	0,051590	
0,407000	0,66	0,043080	
0,418000	0,66	0,053860	
0,429000	0,66	0,063430	
0,440000	0,66	0,065770	
0,451000	0,66	0,066130	
0,462000	0,66	0,050580	
0,473000	0,66	0,060220	
0,484000	0,66	0,068040	
0,495000	0,66	0,059900	
0,506000	0,66	0,054270	
0,517000	0,66	0,052610	
0,528000	0,66	0,059660	
0,539000	0,66	0,055240	
0,550000	0,66	0,047320	
0,561000	0,66	0,040650	
0,572000	0,66	0,059110	
0,583000	0,66	0,065930	
0,594000	0,66	0,069800	
0,605000	0,66	0,057060	
0,616000	0,66	0,056740	
0,627000	0,66	0,048330	
0,638000	0,66	0,058620	
0,649000	0,66	0,070970	
0,660000	0,66	0,076860	
0,671000	0,66	0,073510	
0,682000	0,66	0,060730	
0,693000	0,66	0,074140	
0,704000	0,66	0,081200	
0,715000	0,66	0,087440	
0,726000	0,66	0,087230	
0,737000	0,66	0,080530	
0,748000	0,66	0,056990	
0,759000	0,66	0,054990	
0,770000	0,66	0,051190	
0,781000	0,66	0,051740	
0,792000	0,66	0,059060	
0,803000	0,66	0,063530	
0,814000	0,66	0,071150	
0,825000	0,66	0,079640	
0,836000	0,66	0,086790	
0,847000	0,66	0,096080	
0,858000	0,66	0,087070	
0,869000	0,66	0,087350	
0,880000	0,66	0,074560	
0,891000	0,66	0,068420	
0,902000	0,66	0,059600	
0,913000	0,66	0,059010	
0,924000	0,66	0,059660	
0,935000	0,66	0,063910	
0,946000	0,66	0,065440	
0,957000	0,66	0,056640	
0,968000	0,66	0,062120	
0,979000	0,66	0,064970	
0,990000	0,66	0,065350	
1,001000	0,66	0,078470	
1,012000	0,66	0,082730	
1,023000	0,66	0,058020	
1,034000	0,66	0,040630	
1,045000	0,66	0,038120	
1,056000	0,66	0,048970	
1,067000	0,66	0,056580	
1,078000	0,66	0,050100	
1,089000	0,66	0,047580	
1,100000	0,66	0,052280	
1,111000	0,66	0,059950	
1,122000	0,66	0,046280	
1,133000	0,66	0,038640	
1,144000	0,66	0,037550	
1,155000	0,66	0,034140	
1,166000	0,66	0,043670	
1,177000	0,66	0,051780	
1,188000	0,66	0,057760	
1,199000	0,66	0,042380	
1,210000	0,66	0,044370	
1,221000	0,66	0,050080	
1,232000	0,66	0,053060	
1,243000	0,66	0,058770	
1,254000	0,66	0,063580	
1,265000	0,66	0,053750	
1,276000	0,66	0,038840	
1,287000	0,66	0,028270	
1,298000	0,66	0,003750	
1,309000	0,66	-0,064740	
1,320000	0,66	-0,219300	
1,331000	0,66	-0,445960	
1,342000	0,66	-0,657710	
1,353000	0,66	-0,781790	
1,364000	0,66	-0,793870	
1,375000	0,66	-0,661530	
1,386000	0,66	-0,495220	
1,397000	0,66	-0,339560	
1,408000	0,66	-0,181560	
1,419000	0,66	-0,050070	
1,430000	0,66	0,057920	
1,441000	0,66	0,150190	
1,452000	0,66	0,223430	
1,463000	0,66	0,256300	
1,474000	0,66	0,298770	
1,485000	0,66	0,337050	
1,496000	0,66	0,405560	
1,507000	0,66	0,464450	
1,518000	0,66	0,519920	
1,529000	0,66	0,586300	
1,540000	0,66	0,650480	
1,551000	0,66	0,737120	
1,562000	0,66	0,783540	
1,573000	0,66	0,803830	
1,584000	0,66	0,832510	
1,595000	0,66	0,835530	
1,606000	0,66	0,805620	
1,617000	0,66	0,747030	
1,628000	0,66	0,669870	
1,639000	0,66	0,561160	
1,650000	0,66	0,436760	
1,661000	0,66	0,326630	
1,672000	0,66	0,214640	
1,683000	0,66	0,118880	
1,694000	0,66	0,026690	
1,705000	0,66	-0,048820	
1,716000	0,66	-0,074830	
1,727000	0,66	-0,083240	
1,738000	0,66	-0,089170	
1,749000	0,66	-0,065960	
1,760000	0,66	-0,035040	
1,771000	0,66	-0,009770	
1,782000	0,66	0,029080	
1,793000	0,66	0,073210	
1,804000	0,66	0,109380	
1,815000	0,66	0,139020	
1,826000	0,66	0,169660	
1,837000	0,66	0,194120	
1,848000	0,66	0,217560	
1,859000	0,66	0,242510	
1,870000	0,66	0,257310	
1,881000	0,66	0,281880	
1,892000	0,66	0,289900	
1,903000	0,66	0,309060	
1,914000	0,66	0,305980	
1,925000	0,66	0,287500	
1,936000	0,66	0,291230	
1,947000	0,66	0,297320	
1,958000	0,66	0,305650	
1,969000	0,66	0,308600	
1,980000	0,66	0,317480	
1,991000	0,66	0,315750	
2,002000	0,66	0,330310	
2,013000	0,66	0,332160	
2,024000	0,66	0,325120	
2,035000	0,66	0,314240	
2,046000	0,66	0,304530	
2,057000	0,66	0,303620	
2,068000	0,66	0,318600	
2,079000	0,66	0,313250	
2,090000	0,66	0,324270	
2,101000	0,66	0,330830	
2,112000	0,66	0,327200	
2,123000	0,66	0,332510	
2,134000	0,66	0,330920	
2,145000	0,66	0,339090	
2,156000	0,66	0,355070	
2,167000	0,66	0,317550	
2,178000	0,66	0,133340	
2,189000	0,66	-0,254490	
2,200000	0,66	-0,724690	
2,211000	0,66	-1,117660	
2,222000	0,66	-1,326250	
2,233000	0,66	-1,353670	
2,244000	0,66	-1,275410	
2,255000	0,66	-1,137460	
2,266000	0,66	-0,948300	
2,277000	0,66	-0,739110	
2,288000	0,66	-0,572690	
2,299000	0,66	-0,435920	
2,310000	0,66	-0,317760	
2,321000	0,66	-0,223180	
2,332000	0,66	-0,168940	
2,343000	0,66	-0,108410	
2,354000	0,66	-0,062460	
2,365000	0,66	-0,023130	
2,376000	0,66	0,006160	
2,387000	0,66	0,020430	
2,398000	0,66	0,034640	
2,409000	0,66	0,047520	
2,420000	0,66	0,045900	
2,431000	0,66	0,045000	
2,442000	0,66	0,043500	
2,453000	0,66	0,046780	
2,464000	0,66	0,046090	
2,475000	0,66	0,033490	
2,486000	0,66	0,026980	
2,497000	0,66	0,025160	
2,508000	0,66	0,043880	
2,519000	0,66	0,062640	
2,530000	0,66	0,058060	
2,541000	0,66	0,038050	
2,552000	0,66	0,033500	
2,563000	0,66	0,038390	
2,574000	0,66	0,051490	
2,585000	0,66	0,075470	
2,596000	0,66	0,075490	
2,607000	0,66	0,063920	
2,618000	0,66	0,062190	
2,629000	0,66	0,046320	
2,640000	0,66	0,020960	
2,651000	0,66	0,019460	
2,662000	0,66	0,026660	
2,673000	0,66	0,031000	
2,684000	0,66	0,007970	
2,695000	0,66	0,008040	
2,706000	0,66	0,030650	
2,717000	0,66	0,040170	
2,728000	0,66	0,053240	
2,739000	0,66	0,056210	
2,750000	0,66	0,051810	
2,761000	0,66	0,049590	
2,772000	0,66	0,037520	
2,783000	0,66	0,026460	
2,794000	0,66	0,044490	
2,805000	0,66	0,043540	
2,816000	0,66	0,048800	
2,827000	0,66	0,049190	
2,838000	0,66	0,044410	
2,849000	0,66	0,041360	
2,860000	0,66	0,055830	
2,871000	0,66	0,068560	
2,882000	0,66	0,056760	
2,893000	0,66	0,035530	
2,904000	0,66	0,027120	
2,915000	0,66	0,025970	
2,926000	0,66	0,031340	
2,937000	0,66	0,024510	
2,948000	0,66	0,030970	
2,959000	0,66	0,028760	
2,970000	0,66	0,030110	
2,981000	0,66	0,051140	
2,992000	0,66	0,057310	
3,003000	0,66	0,045310	
3,014000	0,66	0,048730	
3,025000	0,66	0,063240	
3,036000	0,66	0,056900	
3,047000	0,66	0,047980	
3,058000	0,66	0,048100	
3,069000	0,66	0,049360	
3,080000	0,66	0,038640	
3,091000	0,66	0,037540	
3,102000	0,66	0,065550	
3,113000	0,66	0,065690	
3,124000	0,66	0,053330	
3,135000	0,66	0,056470	
3,146000	0,66	0,068610	
3,157000	0,66	0,062650	
3,168000	0,66	0,037480	
3,179000	0,66	0,037550	
3,190000	0,66	0,041870	
3,201000	0,66	0,038870	
3,212000	0,66	0,050570	
3,223000	0,66	0,064290	
3,234000	0,66	0,062710	
3,245000	0,66	0,059790	
3,256000	0,66	0,077690	
3,267000	0,66	0,084710	
3,278000	0,66	0,078750	
3,289000	0,66	0,063480	
3,300000	0,66	0,048600	
3,311000	0,66	0,048000	
3,322000	0,66	0,051090	
3,333000	0,66	0,053340	
3,344000	0,66	0,054200	
3,355000	0,66	0,066520	
3,366000	0,66	0,057760	
3,377000	0,66	0,059570	
3,388000	0,66	0,052920	
3,399000	0,66	0,045100	
3,410000	0,66	0,057530	
3,421000	0,66	0,053840	
3,432000	0,66	0,056140	
3,443000	0,66	0,070830	
3,454000	0,66	0,080930	
3,465000	0,66	0,076290	
3,476000	0,66	0,071290	
3,487000	0,66	0,051770	
3,498000	0,66	0,055860	
3,509000	0,66	0,051980	
3,520000	0,66	0,057120	
3,531000	0,66	0,055900	
3,542000	0,66	0,060420	
3,553000	0,66	0,050220	
3,564000	0,66	0,041230	
3,575000	0,66	0,044180	
3,586000	0,66	0,055880	
3,597000	0,66	0,063810	
3,608000	0,66	0,058750	
3,619000	0,66	0,059750	
3,630000	0,66	0,065320	
3,641000	0,66	0,049850	
3,652000	0,66	0,048690	
3,663000	0,66	0,046110	
3,674000	0,66	0,051050	
3,685000	0,66	0,059540	
3,696000	0,66	0,067910	
3,707000	0,66	0,062350	
3,718000	0,66	0,059570	
3,729000	0,66	0,066880	
3,740000	0,66	0,058820	
3,751000	0,66	0,055360	
3,762000	0,66	0,058190	
3,773000	0,66	0,049780	
3,784000	0,66	0,053900	
3,795000	0,66	0,052900	
3,806000	0,66	0,043860	
3,817000	0,66	0,047040	
3,828000	0,66	0,050130	
3,839000	0,66	0,051890	
3,850000	0,66	0,057180	
3,861000	0,66	0,057900	
3,872000	0,66	0,058140	
3,883000	0,66	0,061960	
3,894000	0,66	0,064410	
3,905000	0,66	0,059720	
3,916000	0,66	0,056330	
3,927000	0,66	0,061430	
3,938000	0,66	0,053800	
3,949000	0,66	0,061710	
3,960000	0,66	0,077330	
3,971000	0,66	0,081350	
3,982000	0,66	0,074350	
3,993000	0,66	0,055820	
4,004000	0,66	0,055210	
4,015000	0,66	0,053460	
4,026000	0,66	0,063240	
4,037000	0,66	0,066750	
4,048000	0,66	0,067880	
4,059000	0,66	0,057730	
4,070000	0,66	0,043110	
4,081000	0,66	0,054470	
4,092000	0,66	0,064200	
4,103000	0,66	0,061290	
4,114000	0,66	0,040850	
4,125000	0,66	0,046210	
4,136000	0,66	0,044790	
4,147000	0,66	0,054810	
4,158000	0,66	0,056640	
4,169000	0,66	0,062250	
4,180000	0,66	0,060380	
4,191000	0,66	0,052610	
4,202000	0,66	0,037220	
4,213000	0,66	0,033600	
4,224000	0,66	0,045660	
4,235000	0,66	0,045360	
4,246000	0,66	0,055450	
4,257000	0,66	0,057740	
4,268000	0,66	0,056920	
4,279000	0,66	0,056610	
4,290000	0,66	0,061550	
4,301000	0,66	0,074130	
4,312000	0,66	0,077950	
4,323000	0,66	0,055990	
4,334000	0,66	0,055770	
4,345000	0,66	0,064990	
4,356000	0,66	0,070190	
4,367000	0,66	0,063000	
4,378000	0,66	0,066630	
4,389000	0,66	0,055570	
4,400000	0,66	0,046760	
4,411000	0,66	0,050270	
4,422000	0,66	0,049410	
4,433000	0,66	0,051530	
4,444000	0,66	0,056980	
4,455000	0,66	0,056670	
4,466000	0,66	0,052870	
4,477000	0,66	0,055460	
4,488000	0,66	0,061420	
4,499000	0,66	0,062730	
4,510000	0,66	0,063750	
4,521000	0,66	0,054010	
4,532000	0,66	0,044470	
4,543000	0,66	0,051030	
4,554000	0,66	0,057820	
4,565000	0,66	0,054880	
4,576000	0,66	0,042340	
4,587000	0,66	0,027150	
4,598000	0,66	0,033600	
4,609000	0,66	0,057870	
4,620000	0,66	0,071410	
4,631000	0,66	0,081600	
4,642000	0,66	0,084790	
4,653000	0,66	0,075910	
4,664000	0,66	0,065590	
4,675000	0,66	0,051420	
4,686000	0,66	0,041450	
4,697000	0,66	0,037810	
4,708000	0,66	0,032800	
4,719000	0,66	0,034390	
4,730000	0,66	0,040970	
4,741000	0,66	0,072360	
4,752000	0,66	0,077290	
4,763000	0,66	0,059810	
4,774000	0,66	0,046460	
4,785000	0,66	0,037120	
4,796000	0,66	0,042100	
4,807000	0,66	0,067790	
4,818000	0,66	0,071960	
4,829000	0,66	0,080260	
4,840000	0,66	0,063850	
4,851000	0,66	0,057440	
4,862000	0,66	0,059200	
4,873000	0,66	0,056380	
4,884000	0,66	0,052050	
4,895000	0,66	0,045380	
4,906000	0,66	0,055390	
4,917000	0,66	0,059910	
4,928000	0,66	0,051260	
4,939000	0,66	0,064850	
4,950000	0,66	0,074870	
4,961000	0,66	0,083210	
4,972000	0,66	0,061390	
4,983000	0,66	0,041220	
4,994000	0,66	0,033860	
5,005000	0,66	0,031070	
5,016000	0,66	0,037530	
5,027000	0,66	0,040940	
5,038000	0,66	0,053450	
5,049000	0,66	0,063090	
5,060000	0,66	0,060950	
5,071000	0,66	0,064600	
5,082000	0,66	0,065620	
5,093000	0,66	0,052240	
5,104000	0,66	0,053960	
5,115000	0,66	0,069240	
5,126000	0,66	0,071030	
5,137000	0,66	0,069460	
5,148000	0,66	0,060810	
5,159000	0,66	0,067290	
5,170000	0,66	0,080490	
5,181000	0,66	0,077400	
5,192000	0,66	0,065990	
5,203000	0,66	0,062380	
5,214000	0,66	0,067290	
5,225000	0,66	0,067670	
5,236000	0,66	0,056300	
5,247000	0,66	0,043220	
5,258000	0,66	0,046720	
5,269000	0,66	0,057730	
5,280000	0,66	0,051120	
5,291000	0,66	0,039040	
5,302000	0,66	0,034070	
5,313000	0,66	0,027300	
5,324000	0,66	0,027730	
5,335000	0,66	0,026890	
5,346000	0,66	0,026680	
5,357000	0,66	0,041470	
5,368000	0,66	0,048410	
5,379000	0,66	0,045650	
5,390000	0,66	0,034080	
5,401000	0,66	0,021880	
5,412000	0,66	0,042000	
5,423000	0,66	0,054310	
5,434000	0,66	0,049330	
5,445000	0,66	0,054070	
5,456000	0,66	0,049580	
5,467000	0,66	0,029540	
5,478000	0,66	0,028600	
5,489000	0,66	0,028120	
5,500000	0,66	0,013470	
5,511000	0,66	0,012150	
5,522000	0,66	0,014220	
5,533000	0,66	0,012290	
5,544000	0,66	0,019410	
5,555000	0,66	0,017460	
5,566000	0,66	0,019700	
5,577000	0,66	0,013040	
5,588000	0,66	-0,008810	
5,599000	0,66	0,001110	
5,610000	0,66	0,011960	
5,621000	0,66	0,014990	
5,632000	0,66	0,011870	
5,643000	0,66	0,023900	
5,654000	0,66	0,017060	
5,665000	0,66	0,045300	
5,676000	0,66	0,043260	
5,687000	0,66	0,036320	
5,698000	0,66	0,037950	
5,709000	0,66	0,022500	
5,720000	0,66	0,017100	
5,731000	0,66	0,016810	
5,742000	0,66	0,028810	
5,753000	0,66	0,042920	
5,764000	0,66	0,033000	
5,775000	0,66	0,021450	
5,786000	0,66	0,018180	
5,797000	0,66	0,014650	
5,808000	0,66	0,012430	
5,819000	0,66	0,008090	
5,830000	0,66	0,007630	
5,841000	0,66	0,014610	
5,852000	0,66	0,028050	
5,863000	0,66	0,023000	
5,874000	0,66	0,010260	
5,885000	0,66	-0,005470	
5,896000	0,66	0,004080	
5,907000	0,66	0,006890	
5,918000	0,66	-0,004750	
5,929000	0,66	-0,001880	
5,940000	0,66	0,006190	
5,951000	0,66	0,012740	
5,962000	0,66	0,010120	
5,973000	0,66	0,008820	
5,984000	0,66	0,022770	
5,995000	0,66	0,031840	
6,006000	0,66	0,023700	
6,017000	0,66	0,016870	
6,028000	0,66	0,007080	
6,039000	0,66	0,006600	
6,050000	0,66	0,010070	
6,061000	0,66	0,036100	
6,072000	0,66	0,047770	
6,083000	0,66	0,041530	
6,094000	0,66	0,030870	
6,105000	0,66	0,024730	
6,116000	0,66	0,022860	
6,127000	0,66	0,009800	
6,138000	0,66	0,003430	
6,149000	0,66	-0,016070	
6,160000	0,66	-0,017880	
6,171000	0,66	-0,002960	
6,182000	0,66	-0,001860	
6,193000	0,66	-0,027930	
6,204000	0,66	-0,019150	
6,215000	0,66	-0,007710	
6,226000	0,66	-0,026650	
6,237000	0,66	-0,031630	
6,248000	0,66	-0,029250	
6,259000	0,66	-0,028910	
6,270000	0,66	-0,014310	
6,281000	0,66	-0,000500	
6,292000	0,66	-0,025000	
6,303000	0,66	-0,030500	
6,314000	0,66	-0,021950	
6,325000	0,66	-0,030870	
6,336000	0,66	-0,020250	
6,347000	0,66	-0,008850	
6,358000	0,66	-0,015480	
6,369000	0,66	-0,004010	
6,380000	0,66	0,004520	
6,391000	0,66	-0,009590	
6,402000	0,66	-0,017060	
6,413000	0,66	-0,014470	
6,424000	0,66	-0,020720	
6,435000	0,66	-0,015180	
6,446000	0,66	-0,018760	
6,457000	0,66	-0,027960	
6,468000	0,66	-0,025060	
6,479000	0,66	-0,024270	
6,490000	0,66	-0,022370	
6,501000	0,66	-0,025180	
6,512000	0,66	-0,017190	
6,523000	0,66	-0,000640	
6,534000	0,66	0,002880	
6,545000	0,66	-0,003390	
6,556000	0,66	-0,011310	
6,567000	0,66	-0,014840	
6,578000	0,66	-0,014240	
6,589000	0,66	-0,017940	
6,600000	0,66	-0,020900	
6,611000	0,66	-0,016360	
6,622000	0,66	-0,019690	
6,633000	0,66	-0,019970	
6,644000	0,66	-0,011630	
6,655000	0,66	-0,011970	
6,666000	0,66	-0,007710	
6,677000	0,66	-0,005310	
6,688000	0,66	-0,005680	
6,699000	0,66	-0,007670	
6,710000	0,66	-0,024560	
6,721000	0,66	-0,025570	
6,732000	0,66	-0,033230	
6,743000	0,66	-0,035140	
6,754000	0,66	-0,028070	
6,765000	0,66	-0,029460	
6,776000	0,66	-0,024790	
6,787000	0,66	-0,019050	
6,798000	0,66	-0,008140	
6,809000	0,66	-0,016720	
6,820000	0,66	-0,015730	
6,831000	0,66	-0,031110	
6,842000	0,66	-0,042570	
6,853000	0,66	-0,046040	
6,864000	0,66	-0,052080	
6,875000	0,66	-0,050170	
6,886000	0,66	-0,035120	
6,897000	0,66	-0,029490	
6,908000	0,66	-0,024830	
6,919000	0,66	-0,018850	
6,930000	0,66	-0,011520	
6,941000	0,66	-0,004930	
6,952000	0,66	-0,018910	
6,963000	0,66	-0,014350	
6,974000	0,66	-0,000720	
6,985000	0,66	-0,022210	
6,996000	0,66	-0,018610	
7,007000	0,66	-0,003640	
7,018000	0,66	-0,015180	
7,029000	0,66	-0,017450	
7,040000	0,66	-0,012730	
7,051000	0,66	-0,004750	
7,062000	0,66	-0,010480	
7,073000	0,66	-0,006140	
7,084000	0,66	0,007310	
7,095000	0,66	0,011590	
7,106000	0,66	-0,003320	
7,117000	0,66	-0,013210	
7,128000	0,66	-0,014590	
7,139000	0,66	-0,005860	
7,150000	0,66	-0,010580	
7,161000	0,66	-0,010040	
7,172000	0,66	-0,010130	
7,183000	0,66	-0,005160	
7,194000	0,66	-0,002860	
7,205000	0,66	-0,004140	
7,216000	0,66	-0,004390	
7,227000	0,66	-0,008750	
7,238000	0,66	-0,009820	
7,249000	0,66	-0,004380	
7,260000	0,66	-0,010410	
7,271000	0,66	-0,024500	
7,282000	0,66	-0,031790	
7,293000	0,66	-0,034350	
7,304000	0,66	-0,035950	
7,315000	0,66	-0,023190	
7,326000	0,66	-0,006750	
7,337000	0,66	-0,001600	
7,348000	0,66	0,002880	
7,359000	0,66	-0,000390	
7,370000	0,66	-0,012950	
7,381000	0,66	-0,020940	
7,392000	0,66	-0,020060	
7,403000	0,66	-0,009180	
7,414000	0,66	-0,001480	
7,425000	0,66	-0,003850	
7,436000	0,66	-0,010060	
7,447000	0,66	-0,018150	
7,458000	0,66	-0,022020	
7,469000	0,66	-0,007250	
7,480000	0,66	-0,003230	
7,491000	0,66	0,001730	
7,502000	0,66	0,003630	
7,513000	0,66	0,001620	
7,524000	0,66	0,007210	
7,535000	0,66	0,027980	
7,546000	0,66	0,026150	
7,557000	0,66	-0,001940	
7,568000	0,66	-0,010210	
7,579000	0,66	-0,030870	
7,590000	0,66	-0,038350	
7,601000	0,66	-0,019170	
7,612000	0,66	-0,011680	
7,623000	0,66	0,005500	
7,634000	0,66	0,000650	
7,645000	0,66	-0,016740	
7,656000	0,66	-0,021280	
7,667000	0,66	-0,013790	
7,678000	0,66	-0,001730	
7,689000	0,66	-0,016190	
7,700000	0,66	-0,023300	
7,711000	0,66	-0,030400	
7,722000	0,66	-0,040020	
7,733000	0,66	-0,028760	
7,744000	0,66	-0,023580	
7,755000	0,66	-0,025080	
7,766000	0,66	-0,025760	
7,777000	0,66	-0,013450	
7,788000	0,66	-0,002330	
7,799000	0,66	-0,004750	
7,810000	0,66	-0,009990	
7,821000	0,66	-0,010620	
7,832000	0,66	-0,016570	
7,843000	0,66	-0,016730	
7,854000	0,66	-0,029070	
7,865000	0,66	-0,041260	
7,876000	0,66	-0,030410	
7,887000	0,66	-0,022230	
7,898000	0,66	-0,021030	
7,909000	0,66	-0,017480	
7,920000	0,66	-0,022010	
7,931000	0,66	-0,019950	
7,942000	0,66	-0,015200	
7,953000	0,66	-0,011190	
7,964000	0,66	-0,014330	
7,975000	0,66	-0,032610	
7,986000	0,66	-0,045250	
7,997000	0,66	-0,035190	
8,008000	0,66	-0,023650	
8,019000	0,66	-0,031780	
8,030000	0,66	-0,032240	
8,041000	0,66	-0,019120	
8,052000	0,66	-0,004900	
8,063000	0,66	0,005580	
8,074000	0,66	-0,007560	
8,085000	0,66	-0,026220	
8,096000	0,66	-0,030440	
8,107000	0,66	-0,027530	
8,118000	0,66	-0,030420	
8,129000	0,66	-0,033170	
8,140000	0,66	-0,030880	
8,151000	0,66	-0,035460	
8,162000	0,66	-0,030510	
8,173000	0,66	-0,014420	
8,184000	0,66	-0,004910	
8,195000	0,66	-0,003390	
8,206000	0,66	-0,005150	
8,217000	0,66	-0,023630	
8,228000	0,66	-0,037360	
8,239000	0,66	-0,031190	
8,250000	0,66	-0,020180	
8,261000	0,66	-0,023240	
8,272000	0,66	-0,028850	
8,283000	0,66	-0,011160	
8,294000	0,66	-0,007190	
8,305000	0,66	-0,006650	
8,316000	0,66	-0,001580	
8,327000	0,66	-0,008030	
8,338000	0,66	-0,015940	
8,349000	0,66	-0,003090	
8,360000	0,66	-0,006980	
8,371000	0,66	-0,008040	
8,382000	0,66	-0,003470	
8,393000	0,66	-0,003890	
8,404000	0,66	-0,002610	
8,415000	0,66	0,007410	
8,426000	0,66	0,017430	
8,437000	0,66	0,007780	
8,448000	0,66	-0,011090	
8,459000	0,66	-0,019850	
8,470000	0,66	-0,029270	
8,481000	0,66	-0,022480	
8,492000	0,66	-0,017290	
8,503000	0,66	-0,036270	
8,514000	0,66	-0,040070	
8,525000	0,66	-0,016530	
8,536000	0,66	0,001380	
8,547000	0,66	-0,004890	
8,558000	0,66	-0,012900	
8,569000	0,66	-0,008740	
8,580000	0,66	-0,005380	
8,591000	0,66	-0,010820	
8,602000	0,66	-0,015160	
8,613000	0,66	-0,017170	
8,624000	0,66	-0,024360	
8,635000	0,66	-0,021580	
8,646000	0,66	-0,016320	
8,657000	0,66	-0,011260	
8,668000	0,66	0,001670	
8,679000	0,66	0,008670	
8,690000	0,66	0,002590	
8,701000	0,66	-0,011000	
8,712000	0,66	-0,021710	
8,723000	0,66	-0,017090	
8,734000	0,66	-0,004200	
8,745000	0,66	-0,000760	
8,756000	0,66	-0,012460	
8,767000	0,66	-0,017030	
8,778000	0,66	-0,019240	
8,789000	0,66	-0,041020	
8,800000	0,66	-0,048060	
8,811000	0,66	-0,041940	
8,822000	0,66	-0,031660	
8,833000	0,66	-0,021130	
8,844000	0,66	-0,026200	
8,855000	0,66	-0,035690	
8,866000	0,66	-0,040150	
8,877000	0,66	-0,038480	
8,888000	0,66	-0,034910	
8,899000	0,66	-0,023380	
8,910000	0,66	-0,010540	
8,921000	0,66	-0,005920	
8,932000	0,66	-0,017490	
8,943000	0,66	-0,017190	
8,954000	0,66	-0,026190	
8,965000	0,66	-0,015140	
8,976000	0,66	-0,017320	
8,987000	0,66	-0,016800	
8,998000	0,66	-0,010100	
9,009000	0,66	-0,024700	
9,020000	0,66	-0,026380	
9,031000	0,66	-0,039260	
9,042000	0,66	-0,041130	
9,053000	0,66	-0,030810	
9,064000	0,66	-0,024200	
9,075000	0,66	-0,022160	
9,086000	0,66	-0,028950	
9,097000	0,66	-0,045240	
9,108000	0,66	-0,036660	
9,119000	0,66	-0,031680	
9,130000	0,66	-0,036230	
9,141000	0,66	-0,041650	
9,152000	0,66	-0,036740	
9,163000	0,66	-0,025360	
9,174000	0,66	-0,021730	
9,185000	0,66	-0,024460	
9,196000	0,66	-0,025350	
9,207000	0,66	-0,022450	
9,218000	0,66	-0,046000	
9,229000	0,66	-0,039980	
9,240000	0,66	-0,034340	
9,251000	0,66	-0,032040	
9,262000	0,66	-0,022020	
9,273000	0,66	-0,018160	
9,284000	0,66	-0,012370	
9,295000	0,66	-0,012970	
9,306000	0,66	-0,014870	
9,317000	0,66	-0,017660	
9,328000	0,66	-0,012220	
9,339000	0,66	-0,018400	
9,350000	0,66	-0,034930	
9,361000	0,66	-0,035720	
9,372000	0,66	-0,043920	
9,383000	0,66	-0,034830	
9,394000	0,66	-0,025680	
9,405000	0,66	-0,038040	
9,416000	0,66	-0,042830	
9,427000	0,66	-0,032410	
9,438000	0,66	-0,018950	
9,449000	0,66	-0,016160	
9,460000	0,66	-0,017420	
9,471000	0,66	-0,008900	
9,482000	0,66	-0,012330	
9,493000	0,66	-0,025420	
9,504000	0,66	-0,016110	
9,515000	0,66	-0,014530	
9,526000	0,66	-0,006020	
9,537000	0,66	-0,005630	
9,548000	0,66	-0,022840	
9,559000	0,66	-0,032160	
9,570000	0,66	-0,031850	
9,581000	0,66	-0,030270	
9,592000	0,66	-0,029500	
9,603000	0,66	-0,031680	
9,614000	0,66	-0,031130	
9,625000	0,66	-0,041480	
9,636000	0,66	-0,050820	
9,647000	0,66	-0,046630	
9,658000	0,66	-0,047240	
9,669000	0,66	-0,051830	
9,680000	0,66	-0,051120	
9,691000	0,66	-0,034530	
9,702000	0,66	-0,032050	
9,713000	0,66	-0,026080	
9,724000	0,66	-0,019020	
9,735000	0,66	-0,005160	
9,746000	0,66	-0,007980	
9,757000	0,66	-0,001770	
9,768000	0,66	-0,013830	
9,779000	0,66	-0,014510	
9,790000	0,66	-0,017350	
9,801000	0,66	-0,026090	
9,812000	0,66	-0,010910	
9,823000	0,66	-0,016940	
9,834000	0,66	-0,008190	
9,845000	0,66	-0,007790	
9,856000	0,66	-0,019100	
9,867000	0,66	-0,012060	
9,878000	0,66	-0,000080	
9,889000	0,66	0,001960	
9,900000	0,66	-0,002090	
9,911000	0,66	-0,003750	
9,922000	0,66	-0,000700	
9,933000	0,66	-0,004960	
9,944000	0,66	-0,002660	
9,955000	0,66	-0,001270	
9,966000	0,66	-0,009210	
9,977000	0,66	-0,028730	
9,988000	0,66	-0,038790	
9,999000	0,66	-0,041920	
10,010000	0,66	-0,035010	
10,021000	0,66	-0,019730	
10,032000	0,66	-0,013430	
10,043000	0,66	-0,010530	
10,054000	0,66	-0,022490	
10,065000	0,66	-0,042350	
10,076000	0,66	-0,041160	
10,087000	0,66	-0,046300	
10,098000	0,66	-0,045750	
10,109000	0,66	-0,036540	
10,120000	0,66	-0,032410	
10,131000	0,66	-0,034020	
10,142000	0,66	-0,038340	
10,153000	0,66	-0,031330	
10,164000	0,66	-0,037300	
10,175000	0,66	-0,051920	
10,186000	0,66	-0,052090	
10,197000	0,66	-0,031090	
10,208000	0,66	-0,014860	
10,219000	0,66	-0,016210	
10,230000	0,66	-0,003320	
10,241000	0,66	-0,009460	
10,252000	0,66	-0,036630	
10,263000	0,66	-0,038110	
10,274000	0,66	-0,037330	
10,285000	0,66	-0,037700	
10,296000	0,66	-0,031160	
10,307000	0,66	-0,028850	
10,318000	0,66	-0,017240	
10,329000	0,66	-0,013640	
10,340000	0,66	-0,039820	
10,351000	0,66	-0,049100	
10,362000	0,66	-0,037020	
10,373000	0,66	-0,015150	
10,384000	0,66	0,005560	
10,395000	0,66	-0,007180	
10,406000	0,66	-0,028810	
10,417000	0,66	-0,032470	
10,428000	0,66	-0,027250	
10,439000	0,66	-0,028500	
10,450000	0,66	-0,008250	
10,461000	0,66	-0,010020	
10,472000	0,66	-0,004610	
10,483000	0,66	-0,004640	
10,494000	0,66	-0,010150	
10,505000	0,66	-0,015490	
10,516000	0,66	-0,021910	
10,527000	0,66	-0,051760	
10,538000	0,66	-0,049070	
10,549000	0,66	-0,034550	
10,560000	0,66	-0,034950	
10,571000	0,66	-0,033320	
10,582000	0,66	-0,030240	
10,593000	0,66	-0,035100	
10,604000	0,66	-0,044910	
10,615000	0,66	-0,033390	
10,626000	0,66	-0,018900	
10,637000	0,66	-0,012400	
10,648000	0,66	-0,030550	
10,659000	0,66	-0,026640	
10,670000	0,66	-0,012520	
10,681000	0,66	-0,006170	
10,692000	0,66	-0,021840	
10,703000	0,66	-0,038680	
10,714000	0,66	-0,031420	
10,725000	0,66	-0,021770	
10,736000	0,66	-0,011470	
10,747000	0,66	-0,008690	
10,758000	0,66	-0,009400	
10,769000	0,66	-0,008210	
10,780000	0,66	-0,023700	
10,791000	0,66	-0,044410	
10,802000	0,66	-0,045350	
10,813000	0,66	-0,037490	
10,824000	0,66	-0,036960	
10,835000	0,66	-0,036990	
10,846000	0,66	-0,030950	
10,857000	0,66	-0,020920	
10,868000	0,66	-0,017070	
10,879000	0,66	-0,028450	
10,890000	0,66	-0,029740	
10,901000	0,66	-0,013920	
10,912000	0,66	-0,003020	
10,923000	0,66	0,004650	
10,934000	0,66	-0,004490	
10,945000	0,66	-0,010590	
10,956000	0,66	-0,012490	
10,967000	0,66	-0,013070	
10,978000	0,66	-0,019950	
10,989000	0,66	-0,016700	
11,000000	0,66	-0,021930	
11,011000	0,66	-0,013190	
11,022000	0,66	-0,009380	
11,033000	0,66	-0,002800	
11,044000	0,66	-0,008210	
11,055000	0,66	-0,016290	
11,066000	0,66	-0,023770	
11,077000	0,66	-0,023950	
11,088000	0,66	-0,001170	
11,099000	0,66	0,005380	
11,110000	0,66	-0,006550	
11,121000	0,66	-0,005760	
11,132000	0,66	-0,001590	
11,143000	0,66	-0,007840	
11,154000	0,66	0,000360	
11,165000	0,66	0,001020	
11,176000	0,66	0,008830	
11,187000	0,66	0,002590	
11,198000	0,66	0,006680	
11,209000	0,66	-0,000660	
11,220000	0,66	0,001750	
11,231000	0,66	0,009810	
11,242000	0,66	0,002780	
11,253000	0,66	-0,011630	
11,264000	0,66	-0,026820	
11,275000	0,66	-0,019970	
11,286000	0,66	-0,009710	
11,297000	0,66	-0,007970	
11,308000	0,66	-0,010390	
11,319000	0,66	-0,010960	
11,330000	0,66	-0,008070	
11,341000	0,66	-0,015560	
11,352000	0,66	-0,034310	
11,363000	0,66	-0,037250	
11,374000	0,66	-0,034430	
11,385000	0,66	-0,037010	
11,396000	0,66	-0,024830	
11,407000	0,66	-0,017350	
11,418000	0,66	-0,024090	
11,429000	0,66	-0,039190	
11,440000	0,66	-0,037340	
11,451000	0,66	-0,041100	
11,462000	0,66	-0,044180	
11,473000	0,66	-0,038600	
11,484000	0,66	-0,031480	
11,495000	0,66	-0,028950	
11,506000	0,66	-0,032330	
11,517000	0,66	-0,024920	
11,528000	0,66	-0,019220	
11,539000	0,66	-0,019870	
11,550000	0,66	-0,021040	
11,561000	0,66	-0,029060	
11,572000	0,66	-0,034700	
11,583000	0,66	-0,038000	
11,594000	0,66	-0,033230	
11,605000	0,66	-0,025570	
11,616000	0,66	-0,024280	
11,627000	0,66	-0,033130	
11,638000	0,66	-0,040410	
11,649000	0,66	-0,048340	
11,660000	0,66	-0,050320	
11,671000	0,66	-0,039000	
11,682000	0,66	-0,034990	
11,693000	0,66	-0,028460	
11,704000	0,66	-0,016560	
11,715000	0,66	-0,028030	
11,726000	0,66	-0,026650	
11,737000	0,66	-0,024370	
11,748000	0,66	-0,013900	
11,759000	0,66	-0,013550	
11,770000	0,66	-0,019760	
11,781000	0,66	-0,016290	
11,792000	0,66	-0,029820	
11,803000	0,66	-0,049480	
11,814000	0,66	-0,063190	
11,825000	0,66	-0,060070	
11,836000	0,66	-0,048940	
11,847000	0,66	-0,026850	
11,858000	0,66	-0,010240	
11,869000	0,66	0,002150	
11,880000	0,66	-0,014240	
11,891000	0,66	-0,015680	
11,902000	0,66	-0,013690	
11,913000	0,66	-0,033170	
11,924000	0,66	-0,048500	
11,935000	0,66	-0,049920	
11,946000	0,66	-0,040600	
11,957000	0,66	-0,025410	
11,968000	0,66	-0,017920	
11,979000	0,66	-0,024680	
11,990000	0,66	-0,031010	
12,001000	0,66	-0,029210	
12,012000	0,66	-0,007970	
12,023000	0,66	-0,009350	
12,034000	0,66	-0,012820	
12,045000	0,66	-0,019700	
12,056000	0,66	-0,005240	
12,067000	0,66	0,000410	
12,078000	0,66	-0,011370	
12,089000	0,66	-0,012100	
12,100000	0,66	-0,006910	
12,111000	0,66	-0,009710	
12,122000	0,66	-0,011130	
12,133000	0,66	-0,005400	
12,144000	0,66	-0,001830	
12,155000	0,66	-0,005050	
12,166000	0,66	-0,001930	
12,177000	0,66	0,006480	
12,188000	0,66	0,014840	
12,199000	0,66	0,000860	
12,210000	0,66	-0,005770	
12,221000	0,66	0,013330	
12,232000	0,66	0,019020	
12,243000	0,66	0,013030	
12,254000	0,66	0,008920	
12,265000	0,66	0,014870	
12,276000	0,66	0,018810	
12,287000	0,66	0,012090	
12,298000	0,66	-0,001630	
12,309000	0,66	-0,010100	
12,320000	0,66	-0,006230	
12,331000	0,66	0,014390	
12,342000	0,66	0,018960	
12,353000	0,66	0,000040	
12,364000	0,66	-0,016360	
12,375000	0,66	-0,020830	
12,386000	0,66	-0,026960	
12,397000	0,66	-0,024910	
12,408000	0,66	-0,016140	
12,419000	0,66	-0,020520	
12,430000	0,66	-0,025070	
12,441000	0,66	-0,010140	
12,452000	0,66	0,006860	
12,463000	0,66	0,006870	
12,474000	0,66	-0,005650	
12,485000	0,66	-0,015410	
12,496000	0,66	-0,007540	
12,507000	0,66	0,008140	
12,518000	0,66	0,014390	
12,529000	0,66	0,010010	
12,540000	0,66	-0,011070	
12,551000	0,66	0,005530	
12,562000	0,66	-0,001350	
12,573000	0,66	-0,006990	
12,584000	0,66	-0,019660	
12,595000	0,66	-0,011990	
12,606000	0,66	0,016050	
12,617000	0,66	0,012710	
12,628000	0,66	0,008550	
12,639000	0,66	-0,012410	
12,650000	0,66	-0,026930	
12,661000	0,66	-0,047830	
12,672000	0,66	-0,050340	
12,683000	0,66	-0,038460	
12,694000	0,66	-0,037130	
12,705000	0,66	-0,015950	
12,716000	0,66	-0,008010	
12,727000	0,66	-0,001670	
12,738000	0,66	-0,017650	
12,749000	0,66	-0,012870	
12,760000	0,66	-0,003720	
12,771000	0,66	-0,004660	
12,782000	0,66	0,004160	
12,793000	0,66	0,001260	
12,804000	0,66	-0,004780	
12,815000	0,66	-0,006380	
12,826000	0,66	-0,020260	
12,837000	0,66	-0,028930	
12,848000	0,66	-0,043870	
12,859000	0,66	-0,052990	
12,870000	0,66	-0,041700	
12,881000	0,66	-0,043740	
12,892000	0,66	-0,049810	
12,903000	0,66	-0,039420	
12,914000	0,66	-0,022620	
12,925000	0,66	-0,018290	
12,936000	0,66	-0,025630	
12,947000	0,66	-0,032690	
12,958000	0,66	-0,034350	
12,969000	0,66	-0,028970	
12,980000	0,66	-0,022000	
12,991000	0,66	-0,010140	
13,002000	0,66	-0,019680	
13,013000	0,66	-0,015590	
13,024000	0,66	-0,027030	
13,035000	0,66	-0,033160	
13,046000	0,66	-0,034790	
13,057000	0,66	-0,043710	
13,068000	0,66	-0,052540	
13,079000	0,66	-0,036840	
13,090000	0,66	-0,039250	
13,101000	0,66	-0,044400	
13,112000	0,66	-0,036290	
13,123000	0,66	-0,026340	
13,134000	0,66	-0,023330	
13,145000	0,66	-0,016600	
13,156000	0,66	-0,011990	
13,167000	0,66	-0,006200	
13,178000	0,66	-0,011510	
13,189000	0,66	-0,018230	
13,200000	0,66	-0,021400	
13,211000	0,66	-0,004020	
13,222000	0,66	-0,005330	
13,233000	0,66	-0,000390	
13,244000	0,66	-0,008750	
13,255000	0,66	-0,005630	
13,266000	0,66	-0,002350	
13,277000	0,66	-0,002970	
13,288000	0,66	-0,002720	
13,299000	0,66	-0,004120	
13,310000	0,66	0,001820	
13,321000	0,66	-0,001460	
13,332000	0,66	0,012270	
13,343000	0,66	0,025710	
13,354000	0,66	0,028540	
13,365000	0,66	0,016880	
13,376000	0,66	-0,002820	
13,387000	0,66	-0,012650	
13,398000	0,66	-0,030070	
13,409000	0,66	-0,034240	
13,420000	0,66	-0,034660	
13,431000	0,66	-0,031830	
13,442000	0,66	-0,030950	
13,453000	0,66	-0,044440	
13,464000	0,66	-0,037280	
13,475000	0,66	-0,028990	
13,486000	0,66	-0,027930	
13,497000	0,66	-0,036660	
13,508000	0,66	-0,028550	
13,519000	0,66	-0,029660	
13,530000	0,66	-0,026320	
13,541000	0,66	-0,017590	
13,552000	0,66	-0,004640	
13,563000	0,66	0,006660	
13,574000	0,66	0,006130	
13,585000	0,66	-0,001390	
13,596000	0,66	-0,017720	
13,607000	0,66	-0,031140	
13,618000	0,66	-0,031810	
13,629000	0,66	-0,026220	
13,640000	0,66	-0,008590	
13,651000	0,66	0,008320	
13,662000	0,66	0,005720	
13,673000	0,66	0,002400	
13,684000	0,66	-0,005760	
13,695000	0,66	-0,018510	
13,706000	0,66	-0,034410	
13,717000	0,66	-0,033740	
13,728000	0,66	-0,034600	
13,739000	0,66	-0,020080	
13,750000	0,66	0,002340	
13,761000	0,66	-0,010840	
13,772000	0,66	-0,014800	
13,783000	0,66	-0,014870	
13,794000	0,66	-0,010960	
13,805000	0,66	-0,009700	
13,816000	0,66	-0,021840	
13,827000	0,66	-0,043570	
13,838000	0,66	-0,045280	
13,849000	0,66	-0,048640	
13,860000	0,66	-0,049270	
13,871000	0,66	-0,046630	
13,882000	0,66	-0,043110	
13,893000	0,66	-0,033440	
13,904000	0,66	-0,024800	
13,915000	0,66	-0,035300	
13,926000	0,66	-0,037090	
13,937000	0,66	-0,034300	
13,948000	0,66	-0,018390	
13,959000	0,66	-0,015610	
13,970000	0,66	-0,014410	
13,981000	0,66	-0,021310	
13,992000	0,66	-0,019450	
14,003000	0,66	-0,003010	
14,014000	0,66	0,016980	
14,025000	0,66	0,002750	
14,036000	0,66	-0,018660	
14,047000	0,66	-0,013730	
14,058000	0,66	-0,018860	
14,069000	0,66	-0,001280	
14,080000	0,66	-0,004870	
14,091000	0,66	-0,002910	
14,102000	0,66	0,005600	
14,113000	0,66	-0,002820	
14,124000	0,66	-0,000610	
14,135000	0,66	0,003850	
14,146000	0,66	0,001870	
14,157000	0,66	0,008510	
14,168000	0,66	0,028320	
14,179000	0,66	0,060560	
14,190000	0,66	0,054880	
14,201000	0,66	0,049530	
14,212000	0,66	0,074020	
14,223000	0,66	0,086650	
14,234000	0,66	0,098790	
14,245000	0,66	0,093640	
14,256000	0,66	0,070600	
14,267000	0,66	0,044930	
14,278000	0,66	0,020690	
14,289000	0,66	0,019120	
14,300000	0,66	0,023450	
14,311000	0,66	0,015930	
14,322000	0,66	0,015980	
14,333000	0,66	0,012990	
14,344000	0,66	-0,000350	
14,355000	0,66	-0,009170	
14,366000	0,66	-0,015620	
14,377000	0,66	-0,014230	
14,388000	0,66	-0,018090	
14,399000	0,66	-0,017130	
14,410000	0,66	-0,004290	
14,421000	0,66	0,007380	
14,432000	0,66	0,019890	
14,443000	0,66	0,016020	
14,454000	0,66	0,017710	
14,465000	0,66	0,023040	
14,476000	0,66	0,027540	
14,487000	0,66	0,010950	
14,498000	0,66	0,013180	
14,509000	0,66	0,002460	
14,520000	0,66	0,006620	
14,531000	0,66	0,005770	
14,542000	0,66	0,024690	
14,553000	0,66	0,040600	
14,564000	0,66	0,028560	
14,575000	0,66	0,030200	
14,586000	0,66	0,034120	
14,597000	0,66	0,044290	
14,608000	0,66	0,016380	
14,619000	0,66	0,010730	
14,630000	0,66	0,010360	
14,641000	0,66	0,000880	
14,652000	0,66	0,000270	
14,663000	0,66	0,020490	
14,674000	0,66	0,002710	
14,685000	0,66	-0,008160	
14,696000	0,66	-0,001270	
14,707000	0,66	0,004120	
14,718000	0,66	-0,013760	
14,729000	0,66	-0,003610	
14,740000	0,66	0,003240	
14,751000	0,66	0,006800	
14,762000	0,66	0,004970	
14,773000	0,66	-0,007170	
14,784000	0,66	-0,007070	
14,795000	0,66	-0,008100	
14,806000	0,66	-0,017930	
14,817000	0,66	-0,024810	
14,828000	0,66	-0,032540	
14,839000	0,66	-0,010010	
14,850000	0,66	0,001140	
14,861000	0,66	0,001990	
14,872000	0,66	-0,006940	
14,883000	0,66	-0,003350	
14,894000	0,66	0,002640	
14,905000	0,66	0,004030	
14,916000	0,66	-0,006590	
14,927000	0,66	-0,019070	
14,938000	0,66	-0,012330	
14,949000	0,66	-0,006310	
14,960000	0,66	-0,012590	
14,971000	0,66	-0,006330	
14,982000	0,66	0,007790	
14,993000	0,66	0,011490	
15,004000	0,66	0,007080	
15,015000	0,66	0,006970	
15,026000	0,66	0,011430	
15,037000	0,66	0,003190	
15,048000	0,66	-0,014450	
15,059000	0,66	-0,026920	
15,070000	0,66	-0,020690	
15,081000	0,66	-0,013400	
15,092000	0,66	-0,014520	
15,103000	0,66	-0,012150	
15,114000	0,66	-0,015560	
15,125000	0,66	-0,029650	
15,136000	0,66	-0,031350	
15,147000	0,66	-0,022930	
15,158000	0,66	-0,000910	
15,169000	0,66	0,005580	
15,180000	0,66	-0,006930	
15,191000	0,66	-0,028580	
15,202000	0,66	-0,012680	
15,213000	0,66	-0,014630	
15,224000	0,66	-0,006490	
15,235000	0,66	-0,005530	
15,246000	0,66	-0,014290	
15,257000	0,66	-0,039990	
15,268000	0,66	-0,032940	
15,279000	0,66	-0,012020	
15,290000	0,66	-0,011940	
15,301000	0,66	-0,008290	
15,312000	0,66	0,003840	
15,323000	0,66	0,001320	
15,334000	0,66	-0,005030	
15,345000	0,66	0,003950	
15,356000	0,66	-0,003310	
15,367000	0,66	0,009390	
15,378000	0,66	0,008390	
15,389000	0,66	0,023640	
15,400000	0,66	0,039930	
15,411000	0,66	0,035960	
15,422000	0,66	0,029600	
15,433000	0,66	0,013740	
15,444000	0,66	-0,004620	
15,455000	0,66	-0,022230	
15,466000	0,66	-0,030890	
15,477000	0,66	-0,028070	
15,488000	0,66	-0,011420	
15,499000	0,66	-0,008970	
15,510000	0,66	-0,012380	
15,521000	0,66	0,004420	
15,532000	0,66	0,009400	
15,543000	0,66	0,007820	
15,554000	0,66	0,019320	
15,565000	0,66	0,017490	
15,576000	0,66	0,015400	
15,587000	0,66	0,020270	
15,598000	0,66	0,021590	
15,609000	0,66	0,001820	
15,620000	0,66	0,005530	
15,631000	0,66	0,005060	
15,642000	0,66	-0,005180	
15,653000	0,66	-0,001700	
15,664000	0,66	-0,002360	
15,675000	0,66	-0,000360	
15,686000	0,66	0,006290	
15,697000	0,66	0,002630	
15,708000	0,66	-0,005590	
15,719000	0,66	-0,005860	
15,730000	0,66	0,011310	
15,741000	0,66	0,038340	
15,752000	0,66	0,049240	
15,763000	0,66	0,038790	
15,774000	0,66	0,034950	
15,785000	0,66	0,042590	
15,796000	0,66	0,045470	
15,807000	0,66	0,067400	
15,818000	0,66	0,073280	
15,829000	0,66	0,072460	
15,840000	0,66	0,064970	
15,851000	0,66	0,066380	
15,862000	0,66	0,051720	
15,873000	0,66	0,039550	
15,884000	0,66	0,043910	
15,895000	0,66	0,047080	
15,906000	0,66	0,033120	
15,917000	0,66	0,031580	
15,928000	0,66	0,032570	
15,939000	0,66	0,014450	
15,950000	0,66	0,011950	
15,961000	0,66	0,011950	
15,972000	0,66	0,008820	
15,983000	0,66	0,016040	
15,994000	0,66	0,019120	
16,005000	0,66	0,022040	
16,016000	0,66	0,017570	
16,027000	0,66	0,024380	
16,038000	0,66	0,021950	
16,049000	0,66	0,030360	
16,060000	0,66	0,020520	
16,071000	0,66	0,017050	
16,082000	0,66	0,019310	
16,093000	0,66	0,025850	
16,104000	0,66	0,031960	
16,115000	0,66	0,045590	
16,126000	0,66	0,038340	
16,137000	0,66	0,033150	
16,148000	0,66	0,029730	
16,159000	0,66	0,034970	
16,170000	0,66	0,027810	
16,181000	0,66	0,017020	
16,192000	0,66	0,028970	
16,203000	0,66	0,042550	
16,214000	0,66	0,044940	
16,225000	0,66	0,031310	
16,236000	0,66	0,025570	
16,247000	0,66	0,012990	
16,258000	0,66	0,020990	
16,269000	0,66	0,023060	
16,280000	0,66	0,015760	
16,291000	0,66	0,022770	
16,302000	0,66	0,025380	
16,313000	0,66	0,015590	
16,324000	0,66	0,006810	
16,335000	0,66	-0,005630	
16,346000	0,66	-0,012690	
16,357000	0,66	-0,009040	
16,368000	0,66	-0,011840	
16,379000	0,66	-0,013030	
16,390000	0,66	-0,005670	
16,401000	0,66	-0,005960	
16,412000	0,66	-0,013330	
16,423000	0,66	-0,019940	
16,434000	0,66	-0,022770	
16,445000	0,66	-0,014050	
16,456000	0,66	-0,001830	
16,467000	0,66	0,004220	
16,478000	0,66	0,003360	
16,489000	0,66	-0,007660	
16,500000	0,66	0,001240	
16,511000	0,66	0,005630	
16,522000	0,66	-0,000390	
16,533000	0,66	-0,003700	
16,544000	0,66	-0,008510	
16,555000	0,66	-0,016130	
16,566000	0,66	-0,015910	
16,577000	0,66	-0,012020	
16,588000	0,66	-0,005600	
16,599000	0,66	-0,010510	
16,610000	0,66	-0,018900	
16,621000	0,66	0,003400	
16,632000	0,66	0,007810	
16,643000	0,66	-0,015170	
16,654000	0,66	-0,027560	
16,665000	0,66	-0,018710	
16,676000	0,66	-0,006760	
16,687000	0,66	-0,018270	
16,698000	0,66	-0,028740	
16,709000	0,66	-0,040110	
16,720000	0,66	-0,042960	
16,731000	0,66	-0,038820	
16,742000	0,66	-0,020930	
16,753000	0,66	-0,022810	
16,764000	0,66	-0,032840	
16,775000	0,66	-0,030430	
16,786000	0,66	-0,022480	
16,797000	0,66	-0,011770	
16,808000	0,66	-0,021650	
16,819000	0,66	-0,020650	
16,830000	0,66	-0,029130	
16,841000	0,66	-0,043180	
16,852000	0,66	-0,038650	
16,863000	0,66	-0,038420	
16,874000	0,66	-0,033810	
16,885000	0,66	-0,005680	
16,896000	0,66	0,005050	
16,907000	0,66	-0,001550	
16,918000	0,66	0,004850	
16,929000	0,66	-0,003520	
16,940000	0,66	-0,011870	
16,951000	0,66	-0,004110	
16,962000	0,66	-0,007750	
16,973000	0,66	-0,008840	
16,984000	0,66	-0,013620	
16,995000	0,66	-0,008890	
17,006000	0,66	-0,008900	
17,017000	0,66	-0,009350	
17,028000	0,66	-0,006080	
17,039000	0,66	-0,005830	
17,050000	0,66	-0,005540	
17,061000	0,66	-0,003150	
17,072000	0,66	-0,012410	
17,083000	0,66	-0,023010	
17,094000	0,66	-0,035760	
17,105000	0,66	-0,047100	
17,116000	0,66	-0,038740	
17,127000	0,66	-0,033510	
17,138000	0,66	-0,020260	
17,149000	0,66	-0,004210	
17,160000	0,66	-0,010060	
17,171000	0,66	-0,000600	
17,182000	0,66	0,013420	
17,193000	0,66	0,012940	
17,204000	0,66	0,005720	
17,215000	0,66	-0,001050	
17,226000	0,66	0,008770	
17,237000	0,66	0,023120	
17,248000	0,66	0,017210	
17,259000	0,66	0,011960	
17,270000	0,66	0,016740	
17,281000	0,66	0,023180	
17,292000	0,66	0,018790	
17,303000	0,66	0,020230	
17,314000	0,66	0,008460	
17,325000	0,66	-0,013330	
17,336000	0,66	-0,021010	
17,347000	0,66	-0,016490	
17,358000	0,66	-0,026850	
17,369000	0,66	-0,022780	
17,380000	0,66	-0,019300	
17,391000	0,66	-0,029530	
17,402000	0,66	-0,022570	
17,413000	0,66	0,000220	
17,424000	0,66	-0,000170	
17,435000	0,66	0,008460	
17,446000	0,66	0,007870	
17,457000	0,66	0,007950	
17,468000	0,66	0,001210	
17,479000	0,66	-0,012180	
17,490000	0,66	-0,008770	
17,501000	0,66	-0,013800	
17,512000	0,66	-0,020810	
17,523000	0,66	-0,016710	
17,534000	0,66	-0,007640	
17,545000	0,66	-0,012160	
17,556000	0,66	-0,017680	
17,567000	0,66	-0,039450	
17,578000	0,66	-0,042870	
17,589000	0,66	-0,040800	
17,600000	0,66	-0,039450	
17,611000	0,66	-0,028400	
17,622000	0,66	-0,028200	
17,633000	0,66	-0,017900	
17,644000	0,66	-0,005840	
17,655000	0,66	-0,013670	
17,666000	0,66	-0,006800	
17,677000	0,66	-0,000990	
17,688000	0,66	0,001290	
17,699000	0,66	-0,003160	
17,710000	0,66	-0,023150	
17,721000	0,66	-0,032770	
17,732000	0,66	-0,019950	
17,743000	0,66	-0,004830	
17,754000	0,66	-0,006870	
17,765000	0,66	-0,006270	
17,776000	0,66	0,003490	
17,787000	0,66	0,008460	
17,798000	0,66	0,011570	
17,809000	0,66	0,006360	
17,820000	0,66	-0,004740	
17,831000	0,66	-0,012650	
17,842000	0,66	-0,017960	
17,853000	0,66	-0,013800	
17,864000	0,66	-0,002070	
17,875000	0,66	-0,008050	
17,886000	0,66	-0,025080	
17,897000	0,66	-0,024360	
17,908000	0,66	-0,017500	
17,919000	0,66	-0,029940	
17,930000	0,66	-0,051120	
17,941000	0,66	-0,038900	
17,952000	0,66	-0,039080	
17,963000	0,66	-0,027980	
17,974000	0,66	-0,023880	
17,985000	0,66	-0,029430	
17,996000	0,66	-0,029580	
18,007000	0,66	-0,024570	
18,018000	0,66	-0,032640	
18,029000	0,66	-0,032720	
18,040000	0,66	-0,037720	
18,051000	0,66	-0,036580	
18,062000	0,66	-0,026340	
18,073000	0,66	-0,027920	
18,084000	0,66	-0,024000	
18,095000	0,66	-0,011210	
18,106000	0,66	-0,018460	
18,117000	0,66	-0,013120	
18,128000	0,66	-0,020140	
18,139000	0,66	-0,006000	
18,150000	0,66	-0,013080	
18,161000	0,66	-0,025880	
18,172000	0,66	-0,021390	
18,183000	0,66	-0,017880	
18,194000	0,66	-0,009280	
18,205000	0,66	-0,011220	
18,216000	0,66	-0,009290	
18,227000	0,66	-0,013270	
18,238000	0,66	0,003750	
18,249000	0,66	0,013000	
18,260000	0,66	0,011590	
18,271000	0,66	0,015860	
18,282000	0,66	0,022580	
18,293000	0,66	-0,002730	
18,304000	0,66	-0,010760	
18,315000	0,66	-0,000670	
18,326000	0,66	0,006470	
18,337000	0,66	0,010390	
18,348000	0,66	0,002940	
18,359000	0,66	-0,008300	
18,370000	0,66	-0,016870	
18,381000	0,66	-0,004820	
18,392000	0,66	0,009470	
18,403000	0,66	0,006990	
18,414000	0,66	-0,002760	
18,425000	0,66	-0,008150	
18,436000	0,66	-0,004510	
18,447000	0,66	0,000960	
18,458000	0,66	0,004820	
18,469000	0,66	0,005820	
18,480000	0,66	0,009890	
18,491000	0,66	0,018110	
18,502000	0,66	0,015240	
18,513000	0,66	0,006220	
18,524000	0,66	0,004570	
18,535000	0,66	-0,002870	
18,546000	0,66	-0,018400	
18,557000	0,66	-0,014320	
18,568000	0,66	-0,000270	
18,579000	0,66	0,003360	
18,590000	0,66	0,005460	
18,601000	0,66	0,011700	
18,612000	0,66	0,017100	
18,623000	0,66	0,009040	
18,634000	0,66	-0,000060	
18,645000	0,66	0,012710	
18,656000	0,66	0,011190	
18,667000	0,66	0,007960	
18,678000	0,66	0,017510	
18,689000	0,66	0,024490	
18,700000	0,66	0,010750	
18,711000	0,66	0,004940	
18,722000	0,66	0,005490	
18,733000	0,66	0,008970	
18,744000	0,66	0,007340	
18,755000	0,66	-0,009030	
18,766000	0,66	-0,004470	
18,777000	0,66	0,005680	
18,788000	0,66	0,016570	
18,799000	0,66	0,032800	
18,810000	0,66	0,014090	
18,821000	0,66	0,016800	
18,832000	0,66	-0,001300	
18,843000	0,66	-0,008370	
18,854000	0,66	0,000700	
18,865000	0,66	0,003650	
18,876000	0,66	0,015490	
18,887000	0,66	0,012520	
18,898000	0,66	0,000720	
18,909000	0,66	-0,005900	
18,920000	0,66	-0,000090	
18,931000	0,66	-0,002230	
18,942000	0,66	0,012790	
18,953000	0,66	0,012800	
18,964000	0,66	0,002100	
18,975000	0,66	0,003260	
18,986000	0,66	0,005220	
18,997000	0,66	0,008510	
19,008000	0,66	0,008140	
19,019000	0,66	0,013020	
19,030000	0,66	0,009790	
19,041000	0,66	0,010340	
19,052000	0,66	0,017370	
19,063000	0,66	-0,001940	
19,074000	0,66	-0,014100	
19,085000	0,66	-0,022010	
19,096000	0,66	-0,017720	
19,107000	0,66	-0,010970	
19,118000	0,66	-0,007960	
19,129000	0,66	-0,005290	
19,140000	0,66	-0,004780	
19,151000	0,66	0,007590	
19,162000	0,66	0,001220	
19,173000	0,66	-0,015150	
19,184000	0,66	-0,016690	
19,195000	0,66	0,001120	
19,206000	0,66	0,031540	
19,217000	0,66	0,030680	
19,228000	0,66	0,011040	
19,239000	0,66	-0,009860	
19,250000	0,66	-0,012370	
19,261000	0,66	-0,007900	
19,272000	0,66	-0,013200	
19,283000	0,66	-0,016680	
19,294000	0,66	-0,021610	
19,305000	0,66	-0,028010	
19,316000	0,66	-0,032450	
19,327000	0,66	-0,028540	
19,338000	0,66	-0,025300	
19,349000	0,66	-0,019830	
19,360000	0,66	-0,031660	
19,371000	0,66	-0,033190	
19,382000	0,66	-0,025280	
19,393000	0,66	-0,017280	
19,404000	0,66	0,007290	
19,415000	0,66	0,021900	
19,426000	0,66	0,015410	
19,437000	0,66	0,011910	
19,448000	0,66	-0,000300	
19,459000	0,66	-0,012740	
19,470000	0,66	-0,023880	
19,481000	0,66	-0,026950	
19,492000	0,66	-0,024590	
19,503000	0,66	-0,023630	
19,514000	0,66	-0,022380	
19,525000	0,66	-0,022630	
19,536000	0,66	-0,018150	
19,547000	0,66	-0,010120	
19,558000	0,66	-0,009520	
19,569000	0,66	-0,016580	
19,580000	0,66	-0,014960	
19,591000	0,66	-0,008680	
19,602000	0,66	-0,011990	
19,613000	0,66	-0,015020	
19,624000	0,66	-0,033590	
19,635000	0,66	-0,024480	
19,646000	0,66	-0,010570	
19,657000	0,66	-0,004090	
19,668000	0,66	-0,004270	
19,679000	0,66	0,006750	
19,690000	0,66	0,002440	
19,701000	0,66	-0,004170	
19,712000	0,66	-0,005160	
19,723000	0,66	0,011550	
19,734000	0,66	0,000350	
19,745000	0,66	-0,015660	
19,756000	0,66	-0,018500	
19,767000	0,66	-0,013200	
19,778000	0,66	-0,025860	
19,789000	0,66	-0,020690	
19,800000	0,66	0,001880	
19,811000	0,66	0,007030	
19,822000	0,66	0,006180	
19,833000	0,66	0,009760	
19,844000	0,66	0,011150	
19,855000	0,66	0,024500	
19,866000	0,66	0,026320	
19,877000	0,66	0,016310	
19,888000	0,66	0,014570	
19,899000	0,66	0,002900	
19,910000	0,66	0,000970	
19,921000	0,66	0,001660	
19,932000	0,66	-0,000810	
19,943000	0,66	0,002880	
19,954000	0,66	-0,007830	
19,965000	0,66	-0,012660	
19,976000	0,66	-0,004520	
19,987000	0,66	0,011410	
19,998000	0,66	0,007960	
20,009000	0,66	0,002660	
20,020000	0,66	0,018890	
20,031000	0,66	0,031040	
20,042000	0,66	0,019210	
20,053000	0,66	0,010640	
20,064000	0,66	0,017480	
20,075000	0,66	0,018470	
20,086000	0,66	0,005310	
20,097000	0,66	0,009570	
20,108000	0,66	0,016480	
20,119000	0,66	0,009410	
20,130000	0,66	0,009990	
20,141000	0,66	0,003860	
20,152000	0,66	0,025550	
20,163000	0,66	0,031990	
20,174000	0,66	0,023440	
20,185000	0,66	0,033280	
20,196000	0,66	0,027050	
20,207000	0,66	0,012510	
20,218000	0,66	-0,003180	
20,229000	0,66	-0,006110	
20,240000	0,66	-0,014060	
20,251000	0,66	-0,021440	
20,262000	0,66	-0,034560	
20,273000	0,66	-0,037430	
20,284000	0,66	-0,043130	
20,295000	0,66	-0,032360	
20,306000	0,66	-0,029910	
20,317000	0,66	-0,016520	
20,328000	0,66	-0,017190	
20,339000	0,66	-0,027430	
20,350000	0,66	-0,015860	
20,361000	0,66	-0,011550	
20,372000	0,66	-0,007200	
20,383000	0,66	-0,006550	
20,394000	0,66	-0,011450	
20,405000	0,66	-0,013390	
20,416000	0,66	-0,013200	
20,427000	0,66	-0,005250	
20,438000	0,66	-0,008550	
20,449000	0,66	-0,013440	
20,460000	0,66	0,010350	
20,471000	0,66	0,019990	
20,482000	0,66	0,008290	
20,493000	0,66	0,002110	
20,504000	0,66	-0,005180	
20,515000	0,66	-0,016690	
20,526000	0,66	-0,011990	
20,537000	0,66	-0,008800	
20,548000	0,66	-0,015180	
20,559000	0,66	-0,024240	
20,570000	0,66	-0,021060	
20,581000	0,66	-0,023470	
20,592000	0,66	-0,039090	
20,603000	0,66	-0,040140	
20,614000	0,66	-0,035880	
20,625000	0,66	-0,010400	
20,636000	0,66	0,008620	
20,647000	0,66	0,015510	
20,658000	0,66	0,022420	
20,669000	0,66	0,023220	
20,680000	0,66	0,024940	
20,691000	0,66	0,021890	
20,702000	0,66	0,027960	
20,713000	0,66	0,020890	
20,724000	0,66	0,018950	
20,735000	0,66	0,011720	
20,746000	0,66	0,002870	
20,757000	0,66	0,001760	
20,768000	0,66	-0,000020	
20,779000	0,66	0,002200	
20,790000	0,66	0,006670	
20,801000	0,66	0,019830	
20,812000	0,66	0,021540	
20,823000	0,66	0,031290	
20,834000	0,66	0,021490	
20,845000	0,66	0,015380	
20,856000	0,66	0,012180	
20,867000	0,66	0,019360	
20,878000	0,66	0,009790	
20,889000	0,66	-0,001720	
20,900000	0,66	-0,009250	
20,911000	0,66	-0,009880	
20,922000	0,66	-0,005570	
20,933000	0,66	-0,007480	
20,944000	0,66	-0,001830	
20,955000	0,66	0,003110	
20,966000	0,66	0,007340	
20,977000	0,66	-0,004700	
20,988000	0,66	-0,013820	
20,999000	0,66	-0,012050	
21,010000	0,66	-0,007870	
21,021000	0,66	-0,009880	
21,032000	0,66	-0,010230	
21,043000	0,66	-0,013270	
21,054000	0,66	0,003680	
21,065000	0,66	0,003550	
21,076000	0,66	-0,001570	
21,087000	0,66	-0,013100	
21,098000	0,66	-0,006980	
21,109000	0,66	-0,005140	
21,120000	0,66	0,005280	
21,131000	0,66	0,021100	
21,142000	0,66	0,032200	
21,153000	0,66	0,018580	
21,164000	0,66	0,015210	
21,175000	0,66	0,020430	
21,186000	0,66	0,038900	
21,197000	0,66	0,058880	
21,208000	0,66	0,058220	
21,219000	0,66	0,048140	
21,230000	0,66	0,057300	
21,241000	0,66	0,058320	
21,252000	0,66	0,035420	
21,263000	0,66	0,030020	
21,274000	0,66	0,028290	
21,285000	0,66	0,024950	
21,296000	0,66	0,027510	
21,307000	0,66	0,020670	
21,318000	0,66	0,028150	
21,329000	0,66	0,024560	
21,340000	0,66	0,000960	
21,351000	0,66	-0,010300	
21,362000	0,66	-0,009610	
21,373000	0,66	0,000900	
21,384000	0,66	0,013790	
21,395000	0,66	-0,001390	
21,406000	0,66	-0,006540	
21,417000	0,66	0,000160	
21,428000	0,66	-0,008010	
21,439000	0,66	-0,010470	
21,450000	0,66	-0,012830	
21,461000	0,66	-0,000880	
21,472000	0,66	-0,009870	
21,483000	0,66	-0,015440	
21,494000	0,66	-0,025350	
21,505000	0,66	-0,024340	
21,516000	0,66	-0,017050	
21,527000	0,66	-0,009850	
21,538000	0,66	-0,014140	
21,549000	0,66	-0,013370	
21,560000	0,66	-0,024790	
21,571000	0,66	-0,021470	
21,582000	0,66	-0,036320	
21,593000	0,66	-0,044040	
21,604000	0,66	-0,018980	
21,615000	0,66	-0,004480	
21,626000	0,66	0,009220	
21,637000	0,66	0,019080	
21,648000	0,66	0,004990	
21,659000	0,66	-0,002920	
21,670000	0,66	-0,001770	
21,681000	0,66	-0,012760	
21,692000	0,66	-0,014230	
21,703000	0,66	-0,016380	
21,714000	0,66	-0,017860	
21,725000	0,66	-0,025560	
21,736000	0,66	-0,029430	
21,747000	0,66	-0,014760	
21,758000	0,66	-0,027980	
21,769000	0,66	-0,033280	
21,780000	0,66	-0,030990	
21,791000	0,66	-0,016910	
21,802000	0,66	-0,023030	
21,813000	0,66	-0,041030	
21,824000	0,66	-0,045390	
21,835000	0,66	-0,026050	
21,846000	0,66	-0,011210	
21,857000	0,66	-0,009020	
21,868000	0,66	-0,009310	
21,879000	0,66	-0,008250	
21,890000	0,66	-0,013030	
21,901000	0,66	-0,029250	
21,912000	0,66	-0,025410	
21,923000	0,66	-0,016820	
21,934000	0,66	-0,016260	
21,945000	0,66	-0,011010	
21,956000	0,66	-0,012170	
21,967000	0,66	-0,012200	
21,978000	0,66	-0,013790	
21,989000	0,66	-0,009850	
22,000000	0,66	0,014040	
22,011000	0,66	0,029190	
22,022000	0,66	0,024370	
22,033000	0,66	0,002580	
22,044000	0,66	-0,015060	
22,055000	0,66	-0,014680	
22,066000	0,66	-0,014180	
22,077000	0,66	-0,011760	
22,088000	0,66	-0,005040	
22,099000	0,66	0,005990	
22,110000	0,66	0,010360	
22,121000	0,66	0,012890	
22,132000	0,66	0,002560	
22,143000	0,66	-0,007890	
22,154000	0,66	-0,011730	
22,165000	0,66	-0,004490	
22,176000	0,66	-0,014830	
22,187000	0,66	-0,015360	
22,198000	0,66	0,001310	
22,209000	0,66	-0,001080	
22,220000	0,66	-0,005880	
22,231000	0,66	-0,011440	
22,242000	0,66	0,004170	
22,253000	0,66	0,000380	
22,264000	0,66	0,000780	
22,275000	0,66	-0,002310	
22,286000	0,66	-0,005130	
22,297000	0,66	-0,000790	
22,308000	0,66	-0,001900	
22,319000	0,66	0,002360	
22,330000	0,66	0,005910	
22,341000	0,66	0,009690	
22,352000	0,66	0,022860	
22,363000	0,66	0,020450	
22,374000	0,66	0,013830	
22,385000	0,66	-0,001160	
22,396000	0,66	-0,000040	
22,407000	0,66	0,003850	
22,418000	0,66	-0,000700	
22,429000	0,66	0,010310	
22,440000	0,66	0,018000	
22,451000	0,66	0,019280	
22,462000	0,66	-0,001850	
22,473000	0,66	-0,023730	
22,484000	0,66	-0,018520	
22,495000	0,66	-0,012500	
22,506000	0,66	-0,017530	
22,517000	0,66	-0,009700	
22,528000	0,66	-0,006980	
22,539000	0,66	0,001620	
22,550000	0,66	0,014770	
22,561000	0,66	0,007850	
22,572000	0,66	-0,001210	
22,583000	0,66	-0,003120	
22,594000	0,66	0,004400	
22,605000	0,66	0,009700	
22,616000	0,66	-0,000770	
22,627000	0,66	-0,008620	
22,638000	0,66	-0,015600	
22,649000	0,66	-0,027460	
22,660000	0,66	-0,026900	
22,671000	0,66	-0,013180	
22,682000	0,66	-0,006240	
22,693000	0,66	-0,006030	
22,704000	0,66	0,006800	
22,715000	0,66	0,017090	
22,726000	0,66	0,036710	
22,737000	0,66	0,077050	
22,748000	0,66	0,114430	
22,759000	0,66	0,149380	
22,770000	0,66	0,170090	
22,781000	0,66	0,195000	
22,792000	0,66	0,236580	
22,803000	0,66	0,274210	
22,814000	0,66	0,282430	
22,825000	0,66	0,286950	
22,836000	0,66	0,280830	
22,847000	0,66	0,277040	
22,858000	0,66	0,266200	
22,869000	0,66	0,245590	
22,880000	0,66	0,214000	
22,891000	0,66	0,211320	
22,902000	0,66	0,195100	
22,913000	0,66	0,154640	
22,924000	0,66	0,120060	
22,935000	0,66	0,104830	
22,946000	0,66	0,088890	
22,957000	0,66	0,066070	
22,968000	0,66	0,044360	
22,979000	0,66	0,032480	
22,990000	0,66	0,007400	
23,001000	0,66	-0,001850	
23,012000	0,66	-0,001810	
23,023000	0,66	0,011670	
23,034000	0,66	0,024370	
23,045000	0,66	0,021410	
23,056000	0,66	0,013170	
23,067000	0,66	0,009470	
23,078000	0,66	0,013890	
23,089000	0,66	0,005420	
23,100000	0,66	-0,012150	
23,111000	0,66	-0,016130	
23,122000	0,66	-0,012240	
23,133000	0,66	-0,011130	
23,144000	0,66	0,002570	
23,155000	0,66	0,011040	
23,166000	0,66	0,010280	
23,177000	0,66	0,018060	
23,188000	0,66	0,018660	
23,199000	0,66	0,019170	
23,210000	0,66	0,020780	
23,221000	0,66	0,029250	
23,232000	0,66	0,028990	
23,243000	0,66	0,012890	
23,254000	0,66	0,003590	
23,265000	0,66	0,009610	
23,276000	0,66	0,020150	
23,287000	0,66	0,025350	
23,298000	0,66	0,023100	
23,309000	0,66	0,014800	
23,320000	0,66	0,015320	
23,331000	0,66	0,019320	
23,342000	0,66	0,017250	
23,353000	0,66	0,011340	
23,364000	0,66	0,011710	
23,375000	0,66	0,026450	
23,386000	0,66	0,036970	
23,397000	0,66	0,035190	
23,408000	0,66	0,024170	
23,419000	0,66	0,011970	
23,430000	0,66	0,012710	
23,441000	0,66	0,026450	
23,452000	0,66	0,038840	
23,463000	0,66	0,045490	
23,474000	0,66	0,028420	
23,485000	0,66	0,029300	
23,496000	0,66	0,038360	
23,507000	0,66	0,039070	
23,518000	0,66	0,029840	
23,529000	0,66	0,049710	
23,540000	0,66	0,061220	
23,551000	0,66	0,054340	
23,562000	0,66	0,050810	
23,573000	0,66	0,052760	
23,584000	0,66	0,028380	
23,595000	0,66	0,030440	
23,606000	0,66	0,031930	
23,617000	0,66	0,046990	
23,628000	0,66	0,052550	
23,639000	0,66	0,080910	
23,650000	0,66	0,088920	
23,661000	0,66	0,085770	
23,672000	0,66	0,085640	
23,683000	0,66	0,095250	
23,694000	0,66	0,096780	
23,705000	0,66	0,100710	
23,716000	0,66	0,124020	
23,727000	0,66	0,155020	
23,738000	0,66	0,176190	
23,749000	0,66	0,184090	
23,760000	0,66	0,202900	
23,771000	0,66	0,227920	
23,782000	0,66	0,258000	
23,793000	0,66	0,293270	
23,804000	0,66	0,294460	
23,815000	0,66	0,326530	
23,826000	0,66	0,353770	
23,837000	0,66	0,357820	
23,848000	0,66	0,384740	
23,859000	0,66	0,437720	
23,870000	0,66	0,506980	
23,881000	0,66	0,564750	
23,892000	0,66	0,639600	
23,903000	0,66	0,701160	
23,914000	0,66	0,743790	
23,925000	0,66	0,797850	
23,936000	0,66	0,841050	
23,947000	0,66	0,867660	
23,958000	0,66	0,887430	
23,969000	0,66	0,880850	
23,980000	0,66	0,872140	
23,991000	0,66	0,857540	
24,002000	0,66	0,839820	
24,013000	0,66	0,826160	
24,024000	0,66	0,816740	
24,035000	0,66	0,803140	
24,046000	0,66	0,798260	
24,057000	0,66	0,855440	
24,068000	0,66	1,041010	
24,079000	0,66	1,516210	
24,090000	0,66	2,494290	
24,101000	0,66	4,289750	
24,112000	0,66	7,450390	
24,123000	0,66	12,800710	
24,134000	0,66	21,574230	
24,145000	0,66	34,134780	
24,156000	0,66	48,843730	
24,167000	0,66	63,385340	
24,178000	0,66	75,781190	
24,189000	0,66	85,151730	
24,200000	0,66	91,477700	
24,211000	0,66	95,172500	
24,222000	0,66	96,655180	
24,233000	0,66	96,368340	
24,244000	0,66	94,741660	
24,255000	0,66	92,101070	
24,266000	0,66	88,753680	
24,277000	0,66	84,848860	
24,288000	0,66	80,576420	
24,299000	0,66	76,054390	
24,310000	0,66	71,411570	
24,321000	0,66	66,737730	
24,332000	0,66	62,032950	
24,343000	0,66	57,393130	
24,354000	0,66	52,886400	
24,365000	0,66	48,513930	
24,376000	0,66	44,332040	
24,387000	0,66	40,370520	
24,398000	0,66	36,668360	
24,409000	0,66	33,236750	
24,420000	0,66	30,080820	
24,431000	0,66	27,255990	
24,442000	0,66	24,712460	
24,453000	0,66	22,442390	
24,464000	0,66	20,419200	
24,475000	0,66	18,618840	
24,486000	0,66	17,003390	
24,497000	0,66	15,542940	
24,508000	0,66	14,201380	
24,519000	0,66	12,959170	
24,530000	0,66	11,780990	
24,541000	0,66	10,680480	
24,552000	0,66	9,651350	
24,563000	0,66	8,663620	
24,574000	0,66	7,740540	
24,585000	0,66	6,901720	
24,596000	0,66	6,143990	
24,607000	0,66	5,456750	
24,618000	0,66	4,837510	
24,629000	0,66	4,293300	
24,640000	0,66	3,825340	
24,651000	0,66	3,399590	
24,662000	0,66	3,047190	
24,673000	0,66	2,757800	
24,684000	0,66	2,509700	
24,695000	0,66	2,286970	
24,706000	0,66	2,085480	
24,717000	0,66	1,906540	
24,728000	0,66	1,759100	
24,739000	0,66	1,637060	
24,750000	0,66	1,538820	
24,761000	0,66	1,443340	
24,772000	0,66	1,333810	
24,783000	0,66	1,254760	
24,794000	0,66	1,184780	
24,805000	0,66	1,107930	
24,816000	0,66	1,035680	
24,827000	0,66	0,954960	
24,838000	0,66	0,872700	
24,849000	0,66	0,807830	
24,860000	0,66	0,749040	
24,871000	0,66	0,705180	
24,882000	0,66	0,644560	
24,893000	0,66	0,585190	
24,904000	0,66	0,550840	
24,915000	0,66	0,535720	
24,926000	0,66	0,499020	
24,937000	0,66	0,455190	
24,948000	0,66	0,439020	
24,959000	0,66	0,428190	
24,970000	0,66	0,409680	
24,981000	0,66	0,401660	
24,992000	0,66	0,395600	
25,003000	0,66	0,363420	
25,014000	0,66	0,366030	
25,025000	0,66	0,364250	
25,036000	0,66	0,346700	
25,047000	0,66	0,329110	
25,058000	0,66	0,319290	
25,069000	0,66	0,327360	
25,080000	0,66	0,300880	
25,091000	0,66	0,275740	
25,102000	0,66	0,261220	
25,113000	0,66	0,261110	
25,124000	0,66	0,256120	
25,135000	0,66	0,250180	
25,146000	0,66	0,244280	
25,157000	0,66	0,248350	
25,168000	0,66	0,251070	
25,179000	0,66	0,249260	
25,190000	0,66	0,250440	
25,201000	0,66	0,242350	
25,212000	0,66	0,233300	
25,223000	0,66	0,216790	
25,234000	0,66	0,224050	
25,245000	0,66	0,242240	
25,256000	0,66	0,236080	
25,267000	0,66	0,238400	
25,278000	0,66	0,247290	
25,289000	0,66	0,257540	
25,300000	0,66	0,266600	
25,311000	0,66	0,272810	
25,322000	0,66	0,276780	
25,333000	0,66	0,281400	
25,344000	0,66	0,280300	
25,355000	0,66	0,284290	
25,366000	0,66	0,279650	
25,377000	0,66	0,262990	
25,388000	0,66	0,242590	
25,399000	0,66	0,237210	
25,410000	0,66	0,229920	
25,421000	0,66	0,202660	
25,432000	0,66	0,173660	
25,443000	0,66	0,154130	
25,454000	0,66	0,141710	
25,465000	0,66	0,123870	
25,476000	0,66	0,109620	
25,487000	0,66	0,101880	
25,498000	0,66	0,098990	
25,509000	0,66	0,097890	
25,520000	0,66	0,093600	
25,531000	0,66	0,115630	
25,542000	0,66	0,120850	
25,553000	0,66	0,117730	
25,564000	0,66	0,109820	
25,575000	0,66	0,096720	
25,586000	0,66	0,092630	
25,597000	0,66	0,090490	
25,608000	0,66	0,072970	
25,619000	0,66	0,066950	
25,630000	0,66	0,070860	
25,641000	0,66	0,071270	
25,652000	0,66	0,058850	
25,663000	0,66	0,072030	
25,674000	0,66	0,101050	
25,685000	0,66	0,106820	
25,696000	0,66	0,096620	
25,707000	0,66	0,079240	
25,718000	0,66	0,066490	
25,729000	0,66	0,059610	
25,740000	0,66	0,069090	
25,751000	0,66	0,075960	
25,762000	0,66	0,093970	
25,773000	0,66	0,091280	
25,784000	0,66	0,082670	
25,795000	0,66	0,082430	
25,806000	0,66	0,072890	
25,817000	0,66	0,053510	
25,828000	0,66	0,049040	
25,839000	0,66	0,058680	
25,850000	0,66	0,059820	
25,861000	0,66	0,051790	
25,872000	0,66	0,042620	
25,883000	0,66	0,045100	
25,894000	0,66	0,053660	
25,905000	0,66	0,055460	
25,916000	0,66	0,057740	
25,927000	0,66	0,062330	
25,938000	0,66	0,072540	
25,949000	0,66	0,072120	
25,960000	0,66	0,079610	
25,971000	0,66	0,075120	
25,982000	0,66	0,066310	
25,993000	0,66	0,068380	
26,004000	0,66	0,074530	
26,015000	0,66	0,075340	
26,026000	0,66	0,067260	
26,037000	0,66	0,059230	
26,048000	0,66	0,062940	
26,059000	0,66	0,067800	
26,070000	0,66	0,064000	
26,081000	0,66	0,057340	
26,092000	0,66	0,056170	
26,103000	0,66	0,046940	
26,114000	0,66	0,036170	
26,125000	0,66	0,044910	
26,136000	0,66	0,053300	
26,147000	0,66	0,054020	
26,158000	0,66	0,053760	
26,169000	0,66	0,049040	
26,180000	0,66	0,046670	
26,191000	0,66	0,049070	
26,202000	0,66	0,056330	
26,213000	0,66	0,053100	
26,224000	0,66	0,058350	
26,235000	0,66	0,060550	
26,246000	0,66	0,051560	
26,257000	0,66	0,046120	
26,268000	0,66	0,041730	
26,279000	0,66	0,049140	
26,290000	0,66	0,066490	
26,301000	0,66	0,055210	
26,312000	0,66	0,045930	
26,323000	0,66	0,030650	
26,334000	0,66	0,026480	
26,345000	0,66	0,022630	
26,356000	0,66	0,023100	
26,367000	0,66	0,014500	
26,378000	0,66	0,021180	
26,389000	0,66	0,033380	
26,400000	0,66	0,043220	
26,411000	0,66	0,051120	
26,422000	0,66	0,045710	
26,433000	0,66	0,039520	
26,444000	0,66	0,034590	
26,455000	0,66	0,035550	
26,466000	0,66	0,026620	
26,477000	0,66	0,036430	
26,488000	0,66	0,014320	
26,499000	0,66	0,027780	
26,510000	0,66	0,053290	
26,521000	0,66	0,039070	
26,532000	0,66	0,027830	
26,543000	0,66	0,023650	
26,554000	0,66	0,021290	
26,565000	0,66	0,034460	
26,576000	0,66	0,045320	
26,587000	0,66	0,026070	
26,598000	0,66	0,039490	
26,609000	0,66	0,026230	
26,620000	0,66	0,011890	
26,631000	0,66	-0,004470	
26,642000	0,66	-0,023670	
26,653000	0,66	-0,018930	
26,664000	0,66	-0,015760	
26,675000	0,66	-0,018020	
26,686000	0,66	-0,014460	
26,697000	0,66	0,001550	
26,708000	0,66	0,021680	
26,719000	0,66	0,025270	
26,730000	0,66	0,016920	
26,741000	0,66	0,016750	
26,752000	0,66	0,018440	
26,763000	0,66	0,011140	
26,774000	0,66	-0,004640	
26,785000	0,66	-0,000490	
26,796000	0,66	0,013230	
26,807000	0,66	0,012360	
26,818000	0,66	0,010650	
26,829000	0,66	0,007880	
26,840000	0,66	0,004660	
26,851000	0,66	0,014760	
26,862000	0,66	0,020100	
26,873000	0,66	-0,002140	
26,884000	0,66	-0,015630	
26,895000	0,66	-0,001180	
26,906000	0,66	0,008510	
26,917000	0,66	0,013290	
26,928000	0,66	0,013870	
26,939000	0,66	0,016020	
26,950000	0,66	0,038040	
26,961000	0,66	0,044830	
26,972000	0,66	0,038260	
26,983000	0,66	0,026290	
26,994000	0,66	0,026060	
27,005000	0,66	0,041990	
27,016000	0,66	0,028440	
27,027000	0,66	0,026080	
27,038000	0,66	0,018850	
27,049000	0,66	-0,001620	
27,060000	0,66	-0,003190	
27,071000	0,66	-0,013030	
27,082000	0,66	-0,013700	
27,093000	0,66	-0,015760	
27,104000	0,66	-0,012290	
27,115000	0,66	0,011310	
27,126000	0,66	0,021600	
27,137000	0,66	0,021880	
27,148000	0,66	0,008090	
27,159000	0,66	-0,004230	
27,170000	0,66	0,000660	
27,181000	0,66	0,004660	
27,192000	0,66	0,012000	
27,203000	0,66	0,001750	
27,214000	0,66	0,002270	
27,225000	0,66	0,010930	
27,236000	0,66	-0,005760	
27,247000	0,66	0,003730	
27,258000	0,66	0,010870	
27,269000	0,66	0,019650	
27,280000	0,66	0,008330	
27,291000	0,66	-0,001030	
27,302000	0,66	-0,014470	
27,313000	0,66	-0,004620	
27,324000	0,66	0,002650	
27,335000	0,66	0,013350	
27,346000	0,66	0,021230	
27,357000	0,66	0,004810	
27,368000	0,66	0,003840	
27,379000	0,66	-0,005860	
27,390000	0,66	-0,014450	
27,401000	0,66	-0,005320	
27,412000	0,66	0,007930	
27,423000	0,66	0,012590	
27,434000	0,66	0,014590	
27,445000	0,66	0,011530	
27,456000	0,66	0,002420	
27,467000	0,66	0,007150	
27,478000	0,66	0,010830	
27,489000	0,66	0,015330	
27,500000	0,66	0,029300	
27,511000	0,66	0,037150	
27,522000	0,66	0,031470	
27,533000	0,66	0,019480	
27,544000	0,66	0,022380	
27,555000	0,66	0,032070	
27,566000	0,66	0,015260	
27,577000	0,66	-0,003990	
27,588000	0,66	0,004540	
27,599000	0,66	0,002530	
27,610000	0,66	0,008730	
27,621000	0,66	0,025500	
27,632000	0,66	0,035680	
27,643000	0,66	0,023420	
27,654000	0,66	0,017070	
27,665000	0,66	0,016600	
27,676000	0,66	0,009430	
27,687000	0,66	0,005010	
27,698000	0,66	0,015610	
27,709000	0,66	0,014360	
27,720000	0,66	0,003230	
27,731000	0,66	-0,015500	
27,742000	0,66	-0,015210	
27,753000	0,66	-0,012920	
27,764000	0,66	-0,019990	
27,775000	0,66	-0,016720	
27,786000	0,66	-0,008910	
27,797000	0,66	-0,016600	
27,808000	0,66	-0,010140	
27,819000	0,66	0,007090	
27,830000	0,66	-0,003350	
27,841000	0,66	-0,007680	
27,852000	0,66	-0,001980	
27,863000	0,66	-0,010450	
27,874000	0,66	-0,029450	
27,885000	0,66	-0,038210	
27,896000	0,66	-0,024910	
27,907000	0,66	-0,012010	
27,918000	0,66	-0,005640	
27,929000	0,66	-0,017220	
27,940000	0,66	-0,023390	
27,951000	0,66	-0,039440	
27,962000	0,66	-0,030560	
27,973000	0,66	-0,030020	
27,984000	0,66	-0,014420	
27,995000	0,66	0,001700	
28,006000	0,66	-0,010360	
28,017000	0,66	-0,004760	
28,028000	0,66	0,000280	
28,039000	0,66	-0,012030	
28,050000	0,66	-0,008640	
28,061000	0,66	-0,006740	
28,072000	0,66	0,008490	
28,083000	0,66	0,010610	
28,094000	0,66	0,004500	
28,105000	0,66	0,013560	
28,116000	0,66	0,015520	
28,127000	0,66	0,013040	
28,138000	0,66	0,017340	
28,149000	0,66	0,010520	
28,160000	0,66	0,000700	
28,171000	0,66	-0,000310	
28,182000	0,66	0,004200	
28,193000	0,66	0,007680	
28,204000	0,66	0,000010	
28,215000	0,66	-0,002900	
28,226000	0,66	-0,003280	
28,237000	0,66	-0,009520	
28,248000	0,66	-0,006610	
28,259000	0,66	0,001950	
28,270000	0,66	0,002590	
28,281000	0,66	0,000170	
28,292000	0,66	0,008030	
28,303000	0,66	0,006030	
28,314000	0,66	0,024340	
28,325000	0,66	0,027750	
28,336000	0,66	0,011470	
28,347000	0,66	0,014720	
28,358000	0,66	0,018920	
28,369000	0,66	0,031300	
28,380000	0,66	0,031180	
28,391000	0,66	0,038470	
28,402000	0,66	0,034650	
28,413000	0,66	0,051380	
28,424000	0,66	0,059510	
28,435000	0,66	0,055240	
28,446000	0,66	0,050000	
28,457000	0,66	0,048450	
28,468000	0,66	0,044140	
28,479000	0,66	0,072260	
28,490000	0,66	0,081640	
28,501000	0,66	0,082470	
28,512000	0,66	0,098460	
28,523000	0,66	0,118860	
28,534000	0,66	0,137530	
28,545000	0,66	0,138420	
28,556000	0,66	0,144290	
28,567000	0,66	0,151340	
28,578000	0,66	0,147680	
28,589000	0,66	0,120950	
28,600000	0,66	0,112510	
28,611000	0,66	0,115430	
28,622000	0,66	0,097240	
28,633000	0,66	0,102990	
28,644000	0,66	0,108790	
28,655000	0,66	0,087700	
28,666000	0,66	0,092530	
28,677000	0,66	0,093260	
28,688000	0,66	0,093520	
28,699000	0,66	0,095610	
28,710000	0,66	0,102600	
28,721000	0,66	0,105310	
28,732000	0,66	0,101970	
28,743000	0,66	0,107590	
28,754000	0,66	0,119220	
28,765000	0,66	0,133600	
28,776000	0,66	0,144650	
28,787000	0,66	0,159580	
28,798000	0,66	0,155520	
28,809000	0,66	0,139080	
28,820000	0,66	0,125680	
28,831000	0,66	0,110240	
28,842000	0,66	0,116540	
28,853000	0,66	0,123440	
28,864000	0,66	0,110870	
28,875000	0,66	0,107520	
28,886000	0,66	0,106460	
28,897000	0,66	0,100330	
28,908000	0,66	0,086380	
28,919000	0,66	0,058660	
28,930000	0,66	0,037940	
28,941000	0,66	0,030660	
28,952000	0,66	0,029350	
28,963000	0,66	0,023870	
28,974000	0,66	0,022770	
28,985000	0,66	0,030140	
28,996000	0,66	0,037510	
29,007000	0,66	0,039710	
29,018000	0,66	0,031040	
29,029000	0,66	0,019870	
29,040000	0,66	0,021690	
29,051000	0,66	0,011460	
29,062000	0,66	0,016520	
29,073000	0,66	0,016000	
29,084000	0,66	-0,004900	
29,095000	0,66	-0,023460	
29,106000	0,66	-0,022780	
29,117000	0,66	-0,007050	
29,128000	0,66	-0,001900	
29,139000	0,66	-0,002810	
29,150000	0,66	-0,005010	
29,161000	0,66	-0,004640	
29,172000	0,66	-0,004040	
29,183000	0,66	0,002780	
29,194000	0,66	0,014410	
29,205000	0,66	0,024440	
29,216000	0,66	0,025970	
29,227000	0,66	0,003290	
29,238000	0,66	-0,010510	
29,249000	0,66	0,006160	
29,260000	0,66	0,021470	
29,271000	0,66	0,027290	
29,282000	0,66	0,036570	
29,293000	0,66	0,050520	
29,304000	0,66	0,045530	
29,315000	0,66	0,035840	
29,326000	0,66	0,035930	
29,337000	0,66	0,034160	
29,348000	0,66	0,038380	
29,359000	0,66	0,048180	
29,370000	0,66	0,042960	
29,381000	0,66	0,048050	
29,392000	0,66	0,051260	
29,403000	0,66	0,045790	
29,414000	0,66	0,044140	
29,425000	0,66	0,029640	
29,436000	0,66	0,013490	
29,447000	0,66	0,006640	
29,458000	0,66	0,018580	
29,469000	0,66	0,017560	
29,480000	0,66	0,015140	
29,491000	0,66	0,019530	
29,502000	0,66	0,011830	
29,513000	0,66	0,007390	
29,524000	0,66	0,007400	
29,535000	0,66	-0,000610	
29,546000	0,66	-0,008550	
29,557000	0,66	-0,010440	
29,568000	0,66	-0,013390	
29,579000	0,66	-0,009290	
29,590000	0,66	-0,007610	
29,601000	0,66	-0,011850	
29,612000	0,66	-0,018060	
29,623000	0,66	-0,021390	
29,634000	0,66	-0,019170	
29,645000	0,66	-0,034400	
29,656000	0,66	-0,047200	
29,667000	0,66	-0,036160	
29,678000	0,66	-0,022320	
29,689000	0,66	-0,021850	
29,700000	0,66	-0,024390	
29,711000	0,66	-0,004310	
29,722000	0,66	-0,001380	
29,733000	0,66	-0,004540	
29,744000	0,66	-0,009360	
29,755000	0,66	-0,004640	
29,766000	0,66	-0,002240	
29,777000	0,66	0,002050	
29,788000	0,66	-0,001880	
29,799000	0,66	-0,020170	
29,810000	0,66	-0,024100	
29,821000	0,66	-0,019650	
29,832000	0,66	-0,014020	
29,843000	0,66	-0,010800	
29,854000	0,66	-0,008570	
29,865000	0,66	-0,020710	
29,876000	0,66	-0,021730	
29,887000	0,66	-0,016690	
29,898000	0,66	-0,020000	
29,909000	0,66	-0,015540	
29,920000	0,66	-0,015520	
29,931000	0,66	-0,025740	
29,942000	0,66	-0,019540	
29,953000	0,66	-0,006080	
29,964000	0,66	-0,015090	
29,975000	0,66	-0,020080	
29,986000	0,66	-0,011130	
29,997000	0,66	-0,006120	
30,008000	0,66	-0,008980	
30,019000	0,66	-0,011350	
30,030000	0,66	-0,019420	
30,041000	0,66	-0,018530	
30,052000	0,66	-0,008430	
30,063000	0,66	-0,015210	
30,074000	0,66	-0,021080	
30,085000	0,66	-0,010290	
30,096000	0,66	-0,022180	
30,107000	0,66	-0,034160	
30,118000	0,66	-0,037970	
30,129000	0,66	-0,051790	
30,140000	0,66	-0,048280	
30,151000	0,66	-0,052600	
30,162000	0,66	-0,040620	
30,173000	0,66	-0,032590	
30,184000	0,66	-0,033780	
30,195000	0,66	-0,027510	
30,206000	0,66	-0,015960	
30,217000	0,66	-0,005820	
30,228000	0,66	-0,009750	
30,239000	0,66	-0,016460	
30,250000	0,66	-0,023220	
30,261000	0,66	-0,031260	
30,272000	0,66	-0,028800	
30,283000	0,66	-0,013930	
30,294000	0,66	-0,003820	
30,305000	0,66	-0,003920	
30,316000	0,66	-0,001640	
30,327000	0,66	-0,009820	
30,338000	0,66	-0,015510	
30,349000	0,66	-0,009160	
30,360000	0,66	-0,009250	
30,371000	0,66	-0,001930	
30,382000	0,66	-0,006190	
30,393000	0,66	0,001150	
30,404000	0,66	0,005230	
30,415000	0,66	-0,016260	
30,426000	0,66	-0,025910	
30,437000	0,66	-0,015120	
30,448000	0,66	-0,015980	
30,459000	0,66	-0,010960	
30,470000	0,66	-0,008570	
30,481000	0,66	-0,010830	
30,492000	0,66	0,004390	
30,503000	0,66	0,001030	
30,514000	0,66	-0,005200	
30,525000	0,66	-0,011110	
30,536000	0,66	-0,007090	
30,547000	0,66	-0,001820	
30,558000	0,66	-0,013010	
30,569000	0,66	-0,005020	
30,580000	0,66	-0,012390	
30,591000	0,66	-0,008460	
30,602000	0,66	-0,012810	
30,613000	0,66	-0,002710	
30,624000	0,66	-0,028550	
30,635000	0,66	-0,026750	
30,646000	0,66	-0,022160	
30,657000	0,66	-0,016910	
30,668000	0,66	-0,024580	
30,679000	0,66	-0,023310	
30,690000	0,66	-0,035330	
30,701000	0,66	-0,051880	
30,712000	0,66	-0,056520	
30,723000	0,66	-0,032950	
30,734000	0,66	-0,047130	
30,745000	0,66	-0,041070	
30,756000	0,66	-0,034820	
30,767000	0,66	-0,026330	
30,778000	0,66	-0,041850	
30,789000	0,66	-0,048490	
30,800000	0,66	-0,045150	
30,811000	0,66	-0,024550	
30,822000	0,66	-0,017660	
30,833000	0,66	-0,027250	
30,844000	0,66	-0,022900	
30,855000	0,66	-0,029340	
30,866000	0,66	-0,027180	
30,877000	0,66	-0,028850	
30,888000	0,66	-0,034370	
30,899000	0,66	-0,033500	
30,910000	0,66	-0,036070	
30,921000	0,66	-0,028460	
30,932000	0,66	-0,029850	
30,943000	0,66	-0,029560	
30,954000	0,66	-0,027870	
30,965000	0,66	-0,022810	
30,976000	0,66	-0,012030	
30,987000	0,66	-0,012660	
30,998000	0,66	-0,011330	
31,009000	0,66	-0,014720	
31,020000	0,66	-0,028950	
31,031000	0,66	-0,042660	
31,042000	0,66	-0,059960	
31,053000	0,66	-0,053960	
31,064000	0,66	-0,025830	
31,075000	0,66	-0,004220	
31,086000	0,66	0,001140	
31,097000	0,66	-0,016260	
31,108000	0,66	-0,019220	
31,119000	0,66	-0,007940	
31,130000	0,66	0,005950	
31,141000	0,66	-0,000510	
31,152000	0,66	0,000460	
31,163000	0,66	-0,005390	
31,174000	0,66	-0,009860	
31,185000	0,66	-0,009220	
31,196000	0,66	-0,016610	
31,207000	0,66	-0,027630	
31,218000	0,66	-0,008760	
31,229000	0,66	-0,003300	
31,240000	0,66	-0,011300	
31,251000	0,66	-0,005900	
31,262000	0,66	-0,008480	
31,273000	0,66	-0,010320	
31,284000	0,66	-0,008770	
31,295000	0,66	-0,027050	
31,306000	0,66	-0,039750	
31,317000	0,66	-0,019750	
31,328000	0,66	-0,007380	
31,339000	0,66	0,009030	
31,350000	0,66	-0,004250	
31,361000	0,66	-0,012860	
31,372000	0,66	-0,015130	
31,383000	0,66	-0,020390	
31,394000	0,66	-0,021110	
31,405000	0,66	-0,019020	
31,416000	0,66	-0,015940	
31,427000	0,66	-0,027490	
31,438000	0,66	-0,046350	
31,449000	0,66	-0,051630	
31,460000	0,66	-0,038680	
31,471000	0,66	-0,028980	
31,482000	0,66	-0,028570	
31,493000	0,66	-0,035480	
31,504000	0,66	-0,034150	
31,515000	0,66	-0,034630	
31,526000	0,66	-0,027770	
31,537000	0,66	-0,019200	
31,548000	0,66	-0,031660	
31,559000	0,66	-0,042360	
31,570000	0,66	-0,042820	
31,581000	0,66	-0,033480	
31,592000	0,66	-0,018630	
31,603000	0,66	-0,015600	
31,614000	0,66	-0,024210	
31,625000	0,66	-0,032370	
31,636000	0,66	-0,017930	
31,647000	0,66	-0,006860	
31,658000	0,66	-0,011310	
31,669000	0,66	-0,020950	
31,680000	0,66	-0,026730	
31,691000	0,66	-0,021820	
31,702000	0,66	-0,020540	
31,713000	0,66	-0,026090	
31,724000	0,66	-0,036540	
31,735000	0,66	-0,045770	
31,746000	0,66	-0,052940	
31,757000	0,66	-0,060350	
31,768000	0,66	-0,059600	
31,779000	0,66	-0,057280	
31,790000	0,66	-0,052310	
31,801000	0,66	-0,054570	
31,812000	0,66	-0,049850	
31,823000	0,66	-0,040530	
31,834000	0,66	-0,033750	
31,845000	0,66	-0,028210	
31,856000	0,66	-0,036290	
31,867000	0,66	-0,034790	
31,878000	0,66	-0,020720	
31,889000	0,66	-0,027620	
31,900000	0,66	-0,045260	
31,911000	0,66	-0,050710	
31,922000	0,66	-0,045210	
31,933000	0,66	-0,023530	
31,944000	0,66	-0,007970	
31,955000	0,66	-0,015990	
31,966000	0,66	-0,020520	
31,977000	0,66	-0,026620	
31,988000	0,66	-0,023330	
31,999000	0,66	-0,038950	
32,010000	0,66	-0,047950	
32,021000	0,66	-0,060060	
32,032000	0,66	-0,063090	
32,043000	0,66	-0,049910	
32,054000	0,66	-0,059990	
32,065000	0,66	-0,055080	
32,076000	0,66	-0,056640	
32,087000	0,66	-0,061130	
32,098000	0,66	-0,030410	
32,109000	0,66	-0,030380	
32,120000	0,66	-0,041230	
32,131000	0,66	-0,041520	
32,142000	0,66	-0,020910	
32,153000	0,66	-0,022750	
32,164000	0,66	-0,029070	
32,175000	0,66	-0,031030	
32,186000	0,66	-0,028030	
32,197000	0,66	-0,039250	
32,208000	0,66	-0,041490	
32,219000	0,66	-0,032640	
32,230000	0,66	-0,032980	
32,241000	0,66	-0,027610	
32,252000	0,66	-0,029420	
32,263000	0,66	-0,014230	
32,274000	0,66	0,008450	
32,285000	0,66	-0,000060	
32,296000	0,66	-0,018940	
32,307000	0,66	-0,016680	
32,318000	0,66	-0,025950	
32,329000	0,66	-0,036240	
32,340000	0,66	-0,045070	
32,351000	0,66	-0,059470	
32,362000	0,66	-0,060350	
32,373000	0,66	-0,061870	
32,384000	0,66	-0,058560	
32,395000	0,66	-0,040070	
32,406000	0,66	-0,028310	
32,417000	0,66	-0,022340	
32,428000	0,66	-0,013550	
32,439000	0,66	-0,011450	
32,450000	0,66	-0,018710	
32,461000	0,66	-0,017120	
32,472000	0,66	-0,009270	
32,483000	0,66	-0,014630	
32,494000	0,66	-0,027470	
32,505000	0,66	-0,036090	
32,516000	0,66	-0,030400	
32,527000	0,66	-0,027290	
32,538000	0,66	-0,026670	
32,549000	0,66	-0,019480	
32,560000	0,66	-0,012560	
32,571000	0,66	-0,020730	
32,582000	0,66	-0,018030	
32,593000	0,66	-0,028220	
32,604000	0,66	-0,019020	
32,615000	0,66	-0,010230	
32,626000	0,66	-0,024790	
32,637000	0,66	-0,015490	
32,648000	0,66	-0,002070	
32,659000	0,66	-0,003610	
32,670000	0,66	0,008940	
32,681000	0,66	0,004940	
32,692000	0,66	0,000350	
32,703000	0,66	-0,012630	
32,714000	0,66	-0,029160	
32,725000	0,66	-0,038510	
32,736000	0,66	-0,038230	
32,747000	0,66	-0,041290	
32,758000	0,66	-0,027390	
32,769000	0,66	-0,016740	
32,780000	0,66	-0,030190	
32,791000	0,66	-0,021780	
32,802000	0,66	-0,028470	
32,813000	0,66	-0,023810	
32,824000	0,66	-0,018110	
32,835000	0,66	-0,025770	
32,846000	0,66	-0,036760	
32,857000	0,66	-0,045750	
32,868000	0,66	-0,035080	
32,879000	0,66	-0,021810	
32,890000	0,66	-0,015180	
32,901000	0,66	-0,039020	
32,912000	0,66	-0,056390	
32,923000	0,66	-0,055660	
32,934000	0,66	-0,045880	
32,945000	0,66	-0,049410	
32,956000	0,66	-0,057330	
32,967000	0,66	-0,054030	
32,978000	0,66	-0,055650	
32,989000	0,66	-0,059360	
33,000000	0,66	-0,051730	
33,011000	0,66	-0,038360	
33,022000	0,66	-0,032820	
33,033000	0,66	-0,041750	
33,044000	0,66	-0,040410	
33,055000	0,66	-0,026720	
33,066000	0,66	-0,024700	
33,077000	0,66	-0,028300	
33,088000	0,66	-0,027910	
33,099000	0,66	-0,017110	
33,110000	0,66	-0,013680	
33,121000	0,66	-0,022320	
33,132000	0,66	-0,017900	
33,143000	0,66	-0,022570	
33,154000	0,66	-0,026160	
33,165000	0,66	-0,018200	
33,176000	0,66	-0,011920	
33,187000	0,66	-0,011090	
33,198000	0,66	-0,013070	
33,209000	0,66	-0,013710	
33,220000	0,66	-0,019150	
33,231000	0,66	-0,026800	
33,242000	0,66	-0,031440	
33,253000	0,66	-0,040220	
33,264000	0,66	-0,038090	
33,275000	0,66	-0,047390	
33,286000	0,66	-0,043910	
33,297000	0,66	-0,027190	
33,308000	0,66	-0,028650	
33,319000	0,66	-0,028360	
33,330000	0,66	-0,027070	
33,341000	0,66	-0,022680	
33,352000	0,66	-0,022290	
33,363000	0,66	-0,014890	
33,374000	0,66	-0,006730	
33,385000	0,66	0,002410	
33,396000	0,66	0,004500	
33,407000	0,66	0,000030	
33,418000	0,66	-0,020320	
33,429000	0,66	-0,027410	
33,440000	0,66	-0,039670	
33,451000	0,66	-0,044570	
33,462000	0,66	-0,052340	
33,473000	0,66	-0,046890	
33,484000	0,66	-0,045180	
33,495000	0,66	-0,042140	
33,506000	0,66	-0,029300	
33,517000	0,66	-0,027690	
33,528000	0,66	-0,050050	
33,539000	0,66	-0,069520	
33,550000	0,66	-0,061990	
33,561000	0,66	-0,050650	
33,572000	0,66	-0,050000	
33,583000	0,66	-0,062090	
33,594000	0,66	-0,054380	
33,605000	0,66	-0,039190	
33,616000	0,66	-0,027200	
33,627000	0,66	-0,032800	
33,638000	0,66	-0,047320	
33,649000	0,66	-0,058570	
33,660000	0,66	-0,045730	
33,671000	0,66	-0,031290	
33,682000	0,66	-0,032740	
33,693000	0,66	-0,035950	
33,704000	0,66	-0,027350	
33,715000	0,66	-0,014340	
33,726000	0,66	-0,013630	
33,737000	0,66	-0,031790	
33,748000	0,66	-0,035950	
33,759000	0,66	-0,017610	
33,770000	0,66	-0,005560	
33,781000	0,66	-0,004990	
33,792000	0,66	-0,012850	
33,803000	0,66	-0,017120	
33,814000	0,66	-0,016180	
33,825000	0,66	-0,022110	
33,836000	0,66	-0,028140	
33,847000	0,66	-0,031120	
33,858000	0,66	-0,024220	
33,869000	0,66	-0,020130	
33,880000	0,66	-0,017250	
33,891000	0,66	-0,016290	
33,902000	0,66	-0,019040	
33,913000	0,66	-0,015240	
33,924000	0,66	-0,003260	
33,935000	0,66	-0,008180	
33,946000	0,66	-0,011920	
33,957000	0,66	-0,016360	
33,968000	0,66	-0,012840	
33,979000	0,66	-0,021950	
33,990000	0,66	-0,019280	
34,001000	0,66	-0,000130	
34,012000	0,66	0,005490	
34,023000	0,66	-0,006430	
34,034000	0,66	-0,003810	
34,045000	0,66	-0,013310	
34,056000	0,66	-0,038380	
34,067000	0,66	-0,058200	
34,078000	0,66	-0,069740	
34,089000	0,66	-0,049730	
34,100000	0,66	-0,039350	
34,111000	0,66	-0,043160	
34,122000	0,66	-0,051290	
34,133000	0,66	-0,043120	
34,144000	0,66	-0,038950	
34,155000	0,66	-0,023480	
34,166000	0,66	-0,018120	
34,177000	0,66	-0,008430	
34,188000	0,66	-0,011440	
34,199000	0,66	-0,025100	
34,210000	0,66	-0,039910	
34,221000	0,66	-0,047060	
34,232000	0,66	-0,027270	
34,243000	0,66	-0,024080	
34,254000	0,66	-0,020910	
34,265000	0,66	-0,027730	
34,276000	0,66	-0,021160	
34,287000	0,66	-0,019160	
34,298000	0,66	-0,044090	
34,309000	0,66	-0,043770	
34,320000	0,66	-0,047140	
34,331000	0,66	-0,030320	
34,342000	0,66	-0,025170	
34,353000	0,66	-0,028760	
34,364000	0,66	-0,037090	
34,375000	0,66	-0,047510	
34,386000	0,66	-0,038940	
34,397000	0,66	-0,048210	
34,408000	0,66	-0,060930	
34,419000	0,66	-0,050840	
34,430000	0,66	-0,040570	
34,441000	0,66	-0,039870	
34,452000	0,66	-0,034280	
34,463000	0,66	-0,030690	
34,474000	0,66	-0,030590	
34,485000	0,66	-0,020130	
34,496000	0,66	-0,016260	
34,507000	0,66	-0,019420	
34,518000	0,66	-0,021680	
34,529000	0,66	-0,036140	
34,540000	0,66	-0,050440	
34,551000	0,66	-0,046370	
34,562000	0,66	-0,035210	
34,573000	0,66	-0,041560	
34,584000	0,66	-0,037660	
34,595000	0,66	-0,038900	
34,606000	0,66	-0,037840	
34,617000	0,66	-0,028760	
34,628000	0,66	-0,031470	
34,639000	0,66	-0,037250	
34,650000	0,66	-0,039370	
34,661000	0,66	-0,040320	
34,672000	0,66	-0,040150	
34,683000	0,66	-0,038410	
34,694000	0,66	-0,047230	
34,705000	0,66	-0,043290	
34,716000	0,66	-0,045070	
34,727000	0,66	-0,043360	
34,738000	0,66	-0,039100	
34,749000	0,66	-0,048570	
34,760000	0,66	-0,046590	
34,771000	0,66	-0,045370	
34,782000	0,66	-0,062280	
34,793000	0,66	-0,065010	
34,804000	0,66	-0,047370	
34,815000	0,66	-0,038090	
34,826000	0,66	-0,034490	
34,837000	0,66	-0,046160	
34,848000	0,66	-0,045570	
34,859000	0,66	-0,047780	
34,870000	0,66	-0,058890	
34,881000	0,66	-0,055860	
34,892000	0,66	-0,050790	
34,903000	0,66	-0,045810	
34,914000	0,66	-0,041820	
34,925000	0,66	-0,037620	
34,936000	0,66	-0,028540	
34,947000	0,66	-0,016910	
34,958000	0,66	-0,023370	
34,969000	0,66	-0,037260	
34,980000	0,66	-0,059520	
34,991000	0,66	-0,070710	
35,002000	0,66	-0,074980	
35,013000	0,66	-0,053930	
35,024000	0,66	-0,037970	
35,035000	0,66	-0,028840	
35,046000	0,66	-0,031960	
35,057000	0,66	-0,037310	
35,068000	0,66	-0,040430	
35,079000	0,66	-0,036700	
35,090000	0,66	-0,039400	
35,101000	0,66	-0,048470	
35,112000	0,66	-0,044800	
35,123000	0,66	-0,034780	
35,134000	0,66	-0,015180	
35,145000	0,66	-0,008090	
35,156000	0,66	-0,026980	
35,167000	0,66	-0,032620	
35,178000	0,66	-0,021310	
35,189000	0,66	-0,015590	
35,200000	0,66	-0,024230	
35,211000	0,66	-0,029840	
35,222000	0,66	-0,014930	
35,233000	0,66	-0,009600	
35,244000	0,66	-0,012160	
35,255000	0,66	-0,019610	
35,266000	0,66	-0,039150	
35,277000	0,66	-0,049720	
35,288000	0,66	-0,056130	
35,299000	0,66	-0,056860	
35,310000	0,66	-0,045810	
35,321000	0,66	-0,046480	
35,332000	0,66	-0,031690	
35,343000	0,66	-0,017260	
35,354000	0,66	-0,025070	
35,365000	0,66	-0,034100	
35,376000	0,66	-0,028570	
35,387000	0,66	-0,039690	
35,398000	0,66	-0,029130	
35,409000	0,66	-0,035960	
35,420000	0,66	-0,050390	
35,431000	0,66	-0,041260	
35,442000	0,66	-0,052370	
35,453000	0,66	-0,050630	
35,464000	0,66	-0,057350	
35,475000	0,66	-0,054630	
35,486000	0,66	-0,054670	
35,497000	0,66	-0,061750	
35,508000	0,66	-0,044740	
35,519000	0,66	-0,045780	
35,530000	0,66	-0,039330	
35,541000	0,66	-0,025190	
35,552000	0,66	-0,027640	
35,563000	0,66	-0,021830	
35,574000	0,66	-0,022740	
35,585000	0,66	-0,025790	
35,596000	0,66	-0,036050	
35,607000	0,66	-0,041460	
35,618000	0,66	-0,037940	
35,629000	0,66	-0,048800	
35,640000	0,66	-0,052560	
35,651000	0,66	-0,063160	
35,662000	0,66	-0,051960	
35,673000	0,66	-0,030310	
35,684000	0,66	-0,022670	
35,695000	0,66	-0,027650	
35,706000	0,66	-0,028140	
35,717000	0,66	-0,025890	
35,728000	0,66	-0,043950	
35,739000	0,66	-0,063120	
35,750000	0,66	-0,064890	
35,761000	0,66	-0,050460	
35,772000	0,66	-0,042030	
35,783000	0,66	-0,038640	
35,794000	0,66	-0,043630	
35,805000	0,66	-0,049400	
35,816000	0,66	-0,036910	
35,827000	0,66	-0,017980	
35,838000	0,66	-0,021490	
35,849000	0,66	-0,028660	
35,860000	0,66	-0,032660	
35,871000	0,66	-0,035720	
35,882000	0,66	-0,036230	
35,893000	0,66	-0,035070	
35,904000	0,66	-0,044930	
35,915000	0,66	-0,060300	
35,926000	0,66	-0,038810	
35,937000	0,66	-0,025630	
35,948000	0,66	-0,031820	
35,959000	0,66	-0,051710	
35,970000	0,66	-0,063150	
35,981000	0,66	-0,062000	
35,992000	0,66	-0,072960	
36,003000	0,66	-0,075220	
36,014000	0,66	-0,069490	
36,025000	0,66	-0,060440	
36,036000	0,66	-0,050660	
36,047000	0,66	-0,048900	
36,058000	0,66	-0,047780	
36,069000	0,66	-0,029900	
36,080000	0,66	-0,023350	
36,091000	0,66	-0,030260	
36,102000	0,66	-0,033340	
36,113000	0,66	-0,034010	
36,124000	0,66	-0,029600	
36,135000	0,66	-0,039040	
36,146000	0,66	-0,031980	
36,157000	0,66	-0,022280	
36,168000	0,66	-0,038990	
36,179000	0,66	-0,047810	
36,190000	0,66	-0,051470	
36,201000	0,66	-0,033420	
36,212000	0,66	-0,018360	
36,223000	0,66	-0,013310	
36,234000	0,66	-0,037000	
36,245000	0,66	-0,033210	
36,256000	0,66	-0,028280	
36,267000	0,66	-0,042470	
36,278000	0,66	-0,048380	
36,289000	0,66	-0,035590	
36,300000	0,66	-0,036050	
36,311000	0,66	-0,043070	
36,322000	0,66	-0,039970	
36,333000	0,66	-0,030520	
36,344000	0,66	-0,033300	
36,355000	0,66	-0,033290	
36,366000	0,66	-0,042590	
36,377000	0,66	-0,041850	
36,388000	0,66	-0,033120	
36,399000	0,66	-0,028990	
36,410000	0,66	-0,025520	
36,421000	0,66	-0,031430	
36,432000	0,66	-0,031190	
36,443000	0,66	-0,039510	
36,454000	0,66	-0,050500	
36,465000	0,66	-0,055250	
36,476000	0,66	-0,060800	
36,487000	0,66	-0,065110	
36,498000	0,66	-0,059700	
36,509000	0,66	-0,054080	
36,520000	0,66	-0,063570	
36,531000	0,66	-0,060640	
36,542000	0,66	-0,057020	
36,553000	0,66	-0,069370	
36,564000	0,66	-0,061060	
36,575000	0,66	-0,043640	
36,586000	0,66	-0,037970	
36,597000	0,66	-0,036450	
36,608000	0,66	-0,036740	
36,619000	0,66	-0,034290	
36,630000	0,66	-0,044080	
36,641000	0,66	-0,061180	
36,652000	0,66	-0,063010	
36,663000	0,66	-0,064310	
36,674000	0,66	-0,069660	
36,685000	0,66	-0,058730	
36,696000	0,66	-0,056910	
36,707000	0,66	-0,056880	
36,718000	0,66	-0,064190	
36,729000	0,66	-0,065450	
36,740000	0,66	-0,065650	
36,751000	0,66	-0,051270	
36,762000	0,66	-0,035110	
36,773000	0,66	-0,049100	
36,784000	0,66	-0,058960	
36,795000	0,66	-0,066620	
36,806000	0,66	-0,060710	
36,817000	0,66	-0,066050	
36,828000	0,66	-0,082270	
36,839000	0,66	-0,097460	
36,850000	0,66	-0,101510	
36,861000	0,66	-0,100530	
36,872000	0,66	-0,094590	
36,883000	0,66	-0,085260	
36,894000	0,66	-0,050030	
36,905000	0,66	-0,042090	
36,916000	0,66	-0,047620	
36,927000	0,66	-0,065800	
36,938000	0,66	-0,069740	
36,949000	0,66	-0,072000	
36,960000	0,66	-0,071760	
36,971000	0,66	-0,063660	
36,982000	0,66	-0,062070	
36,993000	0,66	-0,058520	
37,004000	0,66	-0,061510	
37,015000	0,66	-0,054450	
37,026000	0,66	-0,050160	
37,037000	0,66	-0,059800	
37,048000	0,66	-0,073530	
37,059000	0,66	-0,083410	
37,070000	0,66	-0,089850	
37,081000	0,66	-0,081670	
37,092000	0,66	-0,085530	
37,103000	0,66	-0,087790	
37,114000	0,66	-0,083070	
37,125000	0,66	-0,084410	
37,136000	0,66	-0,096030	
37,147000	0,66	-0,117710	
37,158000	0,66	-0,129140	
37,169000	0,66	-0,122840	
37,180000	0,66	-0,106050	
37,191000	0,66	-0,104220	
37,202000	0,66	-0,111830	
37,213000	0,66	-0,119180	
37,224000	0,66	-0,118660	
37,235000	0,66	-0,113060	
37,246000	0,66	-0,102740	
37,257000	0,66	-0,100170	
37,268000	0,66	-0,112380	
37,279000	0,66	-0,109970	
37,290000	0,66	-0,095030	
37,301000	0,66	-0,083630	
37,312000	0,66	-0,082440	
37,323000	0,66	-0,100050	
37,334000	0,66	-0,107690	
37,345000	0,66	-0,093440	
37,356000	0,66	-0,090090	
37,367000	0,66	-0,088750	
37,378000	0,66	-0,098120	
37,389000	0,66	-0,102680	
37,400000	0,66	-0,110490	
37,411000	0,66	-0,109360	
37,422000	0,66	-0,099110	
37,433000	0,66	-0,089260	
37,444000	0,66	-0,100900	
37,455000	0,66	-0,104250	
37,466000	0,66	-0,106840	
37,477000	0,66	-0,109990	
37,488000	0,66	-0,127330	
37,499000	0,66	-0,111660	
37,510000	0,66	-0,107470	
37,521000	0,66	-0,103330	
37,532000	0,66	-0,089140	
37,543000	0,66	-0,093270	
37,554000	0,66	-0,104700	
37,565000	0,66	-0,116670	
37,576000	0,66	-0,113560	
37,587000	0,66	-0,096940	
37,598000	0,66	-0,099760	
37,609000	0,66	-0,092540	
37,620000	0,66	-0,097300	
37,631000	0,66	-0,118120	
37,642000	0,66	-0,115860	
37,653000	0,66	-0,121610	
37,664000	0,66	-0,106780	
37,675000	0,66	-0,103330	
37,686000	0,66	-0,112450	
37,697000	0,66	-0,116210	
37,708000	0,66	-0,105840	
37,719000	0,66	-0,097590	
37,730000	0,66	-0,092550	
37,741000	0,66	-0,074720	
37,752000	0,66	-0,063980	
37,763000	0,66	-0,071730	
37,774000	0,66	-0,083020	
37,785000	0,66	-0,078890	
37,796000	0,66	-0,077160	
37,807000	0,66	-0,085280	
37,818000	0,66	-0,091440	
37,829000	0,66	-0,078400	
37,840000	0,66	-0,071140	
37,851000	0,66	-0,076900	
37,862000	0,66	-0,069090	
37,873000	0,66	-0,059540	
37,884000	0,66	-0,057520	
37,895000	0,66	-0,076080	
37,906000	0,66	-0,099690	
37,917000	0,66	-0,117610	
37,928000	0,66	-0,117900	
37,939000	0,66	-0,093940	
37,950000	0,66	-0,076110	
37,961000	0,66	-0,077230	
37,972000	0,66	-0,094290	
37,983000	0,66	-0,119630	
37,994000	0,66	-0,118360	
38,005000	0,66	-0,094530	
38,016000	0,66	-0,092060	
38,027000	0,66	-0,095170	
38,038000	0,66	-0,102100	
38,049000	0,66	-0,103480	
38,060000	0,66	-0,098200	
38,071000	0,66	-0,092710	
38,082000	0,66	-0,098140	
38,093000	0,66	-0,102460	
38,104000	0,66	-0,110480	
38,115000	0,66	-0,119670	
38,126000	0,66	-0,105880	
38,137000	0,66	-0,098630	
38,148000	0,66	-0,114420	
38,159000	0,66	-0,119040	
38,170000	0,66	-0,101610	
38,181000	0,66	-0,086860	
38,192000	0,66	-0,090600	
38,203000	0,66	-0,099260	
38,214000	0,66	-0,089400	
38,225000	0,66	-0,080800	
38,236000	0,66	-0,085230	
38,247000	0,66	-0,097880	
38,258000	0,66	-0,093360	
38,269000	0,66	-0,104020	
38,280000	0,66	-0,098470	
38,291000	0,66	-0,101510	
38,302000	0,66	-0,083520	
38,313000	0,66	-0,089250	
38,324000	0,66	-0,084580	
38,335000	0,66	-0,085700	
38,346000	0,66	-0,093140	
38,357000	0,66	-0,084530	
38,368000	0,66	-0,080310	
38,379000	0,66	-0,108570	
38,390000	0,66	-0,104520	
38,401000	0,66	-0,099070	
38,412000	0,66	-0,097480	
38,423000	0,66	-0,095460	
38,434000	0,66	-0,077860	
38,445000	0,66	-0,077300	
38,456000	0,66	-0,086870	
38,467000	0,66	-0,077490	
38,478000	0,66	-0,073160	
38,489000	0,66	-0,060690	
38,500000	0,66	-0,055410	
38,511000	0,66	-0,060780	
38,522000	0,66	-0,069710	
38,533000	0,66	-0,085840	
38,544000	0,66	-0,081980	
38,555000	0,66	-0,072430	
38,566000	0,66	-0,067230	
38,577000	0,66	-0,065670	
38,588000	0,66	-0,060330	
38,599000	0,66	-0,063900	
38,610000	0,66	-0,075900	
38,621000	0,66	-0,076070	
38,632000	0,66	-0,070010	
38,643000	0,66	-0,057370	
38,654000	0,66	-0,045300	
38,665000	0,66	-0,043980	
38,676000	0,66	-0,057720	
38,687000	0,66	-0,072990	
38,698000	0,66	-0,077310	
38,709000	0,66	-0,078910	
38,720000	0,66	-0,067650	
38,731000	0,66	-0,068910	
38,742000	0,66	-0,069350	
38,753000	0,66	-0,068070	
38,764000	0,66	-0,071040	
38,775000	0,66	-0,069320	
38,786000	0,66	-0,065920	
38,797000	0,66	-0,060630	
38,808000	0,66	-0,059010	
38,819000	0,66	-0,043270	
38,830000	0,66	-0,037400	
38,841000	0,66	-0,045130	
38,852000	0,66	-0,041490	
38,863000	0,66	-0,033090	
38,874000	0,66	-0,043410	
38,885000	0,66	-0,031400	
38,896000	0,66	-0,026790	
38,907000	0,66	-0,048810	
38,918000	0,66	-0,057410	
38,929000	0,66	-0,054740	
38,940000	0,66	-0,064110	
38,951000	0,66	-0,066380	
38,962000	0,66	-0,053910	
38,973000	0,66	-0,044560	
38,984000	0,66	-0,040310	
38,995000	0,66	-0,039330	
39,006000	0,66	-0,047920	
39,017000	0,66	-0,042790	
39,028000	0,66	-0,028530	
39,039000	0,66	-0,028420	
39,050000	0,66	-0,036870	
39,061000	0,66	-0,034200	
39,072000	0,66	-0,024540	
39,083000	0,66	-0,025300	
39,094000	0,66	-0,037480	
39,105000	0,66	-0,038750	
39,116000	0,66	-0,052620	
39,127000	0,66	-0,070210	
39,138000	0,66	-0,058830	
39,149000	0,66	-0,049270	
39,160000	0,66	-0,045980	
39,171000	0,66	-0,043880	
39,182000	0,66	-0,045250	
39,193000	0,66	-0,041680	
39,204000	0,66	-0,031120	
39,215000	0,66	-0,024590	
39,226000	0,66	-0,035780	
39,237000	0,66	-0,029390	
39,248000	0,66	-0,026240	
39,259000	0,66	-0,032530	
39,270000	0,66	-0,037400	
39,281000	0,66	-0,036960	
39,292000	0,66	-0,036480	
39,303000	0,66	-0,038720	
39,314000	0,66	-0,028870	
39,325000	0,66	-0,030440	
39,336000	0,66	-0,032650	
39,347000	0,66	-0,018170	
39,358000	0,66	-0,021610	
39,369000	0,66	-0,035210	
39,380000	0,66	-0,036850	
39,391000	0,66	-0,032080	
39,402000	0,66	-0,027990	
39,413000	0,66	-0,029980	
39,424000	0,66	-0,031290	
39,435000	0,66	-0,024390	
39,446000	0,66	-0,025850	
39,457000	0,66	-0,033740	
39,468000	0,66	-0,043490	
39,479000	0,66	-0,041270	
39,490000	0,66	-0,029320	
39,501000	0,66	-0,020570	
39,512000	0,66	0,000290	
39,523000	0,66	-0,003890	
39,534000	0,66	0,004820	
39,545000	0,66	0,014840	
39,556000	0,66	0,020030	
39,567000	0,66	-0,000960	
39,578000	0,66	-0,007840	
39,589000	0,66	-0,013210	
39,600000	0,66	-0,005750	
39,611000	0,66	-0,007850	
39,622000	0,66	-0,012130	
39,633000	0,66	-0,013870	
39,644000	0,66	-0,001680	
39,655000	0,66	-0,008690	
39,666000	0,66	-0,006860	
39,677000	0,66	0,005640	
39,688000	0,66	0,009320	
39,699000	0,66	0,011190	
39,710000	0,66	0,015440	
39,721000	0,66	0,014000	
39,732000	0,66	0,020980	
39,743000	0,66	0,004380	
39,754000	0,66	0,004570	
39,765000	0,66	0,009630	
39,776000	0,66	0,004110	
39,787000	0,66	0,012800	
39,798000	0,66	0,011140	
39,809000	0,66	0,006670	
39,820000	0,66	0,002690	
39,831000	0,66	0,014100	
39,842000	0,66	0,028650	
39,853000	0,66	0,029600	
39,864000	0,66	0,033340	
39,875000	0,66	0,020190	
39,886000	0,66	0,003070	
39,897000	0,66	-0,002080	
39,908000	0,66	0,007550	
39,919000	0,66	0,026420	
39,930000	0,66	0,032470	
39,941000	0,66	0,023560	
39,952000	0,66	0,027980	
39,963000	0,66	0,038890	
39,974000	0,66	0,059260	
39,985000	0,66	0,071210	
39,996000	0,66	0,068270	
40,007000	0,66	0,074590	
