Filepath	C:\Chromel\data\Analytik\Walther group\Guido\mechanosense\GCR260.SEQ\UV_VIS_3.CHL\7494.acd
Channel	UV_VIS_3

Sample Information:
Datasource	PC-8NN4M2J_local
Sequence	Analytik\Walther group\Guido\mechanosense\GCR260.SEQ
Sample	200717-14
Sample Number	320
Sample Position	RC4
Sample ID	7494
Comment	260-P5-5
QNT method	default
PGM file	single-component-3 40min 60C 0,4mLmin
Type	unknown
Status	finished
Date	17.07.2020
Time	20:20:38
Injection Volume (µl)	100,00
Dilution Factor	1,000000
Amount	1,000000
Weight	1,000000

Raw Data Header Information:
Time Min. (min)	0,000
Time Max. (min)	40,007
Raw-Time Min. (min)	0,000
Raw-Time Max. (min)	40,007
Data Points	3638
Detector	VWD3000.dll
Preferred Read Mode	Unknown
Write Mode	Unknown
Data System	Chromeleon
Version High	06
Version Low	80
Build No.	3160
File Format Version	11
Generation Type	8
File ID	239054205
File Status	16
GUID	e6d2c07c-c859-11ea-b409-00184d71f7da
Signal Factor	0,000010
Signal Dimension	mAU
Signal Unit	Absorbance
Signal Min.	-1,59568
Signal Max.	19,195460
Channel Name	UV_VIS_3
Driver Name	VWD-3x00 Detector
Min. Step	66
Max. Step	66
Average Step	66

Signal Parameter Information:
Signal Info	WVL:610 nm
Wavelength	610 nm
	 




















Raw Data:
Time(min)	Step(sec)	Value(mAU)
0,000000	0,00	-0,008840	
0,011000	0,66	-0,006400	
0,022000	0,66	0,017060	
0,033000	0,66	0,021440	
0,044000	0,66	0,024870	
0,055000	0,66	0,033270	
0,066000	0,66	0,036000	
0,077000	0,66	0,046080	
0,088000	0,66	0,051010	
0,099000	0,66	0,050060	
0,110000	0,66	0,039220	
0,121000	0,66	0,035220	
0,132000	0,66	0,032410	
0,143000	0,66	0,024680	
0,154000	0,66	0,025050	
0,165000	0,66	0,024550	
0,176000	0,66	0,022930	
0,187000	0,66	0,026120	
0,198000	0,66	0,024550	
0,209000	0,66	0,012070	
0,220000	0,66	0,010900	
0,231000	0,66	0,017420	
0,242000	0,66	0,022140	
0,253000	0,66	0,024130	
0,264000	0,66	0,027080	
0,275000	0,66	0,025230	
0,286000	0,66	0,029220	
0,297000	0,66	0,030570	
0,308000	0,66	0,031220	
0,319000	0,66	0,031270	
0,330000	0,66	0,019270	
0,341000	0,66	0,008920	
0,352000	0,66	0,014080	
0,363000	0,66	0,020600	
0,374000	0,66	0,015450	
0,385000	0,66	0,012280	
0,396000	0,66	0,017790	
0,407000	0,66	0,013750	
0,418000	0,66	0,011430	
0,429000	0,66	0,018980	
0,440000	0,66	0,008770	
0,451000	0,66	-0,003700	
0,462000	0,66	-0,006170	
0,473000	0,66	-0,002960	
0,484000	0,66	0,002370	
0,495000	0,66	-0,002980	
0,506000	0,66	0,003310	
0,517000	0,66	0,014440	
0,528000	0,66	0,023290	
0,539000	0,66	0,022990	
0,550000	0,66	0,023030	
0,561000	0,66	0,014770	
0,572000	0,66	0,008320	
0,583000	0,66	0,008760	
0,594000	0,66	0,015910	
0,605000	0,66	0,028910	
0,616000	0,66	0,031600	
0,627000	0,66	0,024850	
0,638000	0,66	0,029520	
0,649000	0,66	0,034450	
0,660000	0,66	0,043300	
0,671000	0,66	0,039550	
0,682000	0,66	0,023980	
0,693000	0,66	0,021380	
0,704000	0,66	0,025590	
0,715000	0,66	0,013980	
0,726000	0,66	0,012780	
0,737000	0,66	0,012900	
0,748000	0,66	-0,004360	
0,759000	0,66	-0,006310	
0,770000	0,66	-0,006150	
0,781000	0,66	-0,005980	
0,792000	0,66	0,001380	
0,803000	0,66	0,002880	
0,814000	0,66	0,002890	
0,825000	0,66	0,008260	
0,836000	0,66	0,020340	
0,847000	0,66	0,024110	
0,858000	0,66	0,022200	
0,869000	0,66	0,023360	
0,880000	0,66	0,024980	
0,891000	0,66	0,021630	
0,902000	0,66	0,016760	
0,913000	0,66	0,016050	
0,924000	0,66	0,019030	
0,935000	0,66	0,022140	
0,946000	0,66	0,019390	
0,957000	0,66	0,006630	
0,968000	0,66	0,006940	
0,979000	0,66	0,009130	
0,990000	0,66	0,006300	
1,001000	0,66	-0,000570	
1,012000	0,66	-0,003150	
1,023000	0,66	0,005870	
1,034000	0,66	0,007050	
1,045000	0,66	-0,004720	
1,056000	0,66	-0,005840	
1,067000	0,66	0,008860	
1,078000	0,66	0,010630	
1,089000	0,66	-0,000360	
1,100000	0,66	0,000850	
1,111000	0,66	0,009180	
1,122000	0,66	0,011780	
1,133000	0,66	0,007660	
1,144000	0,66	0,007020	
1,155000	0,66	0,009900	
1,166000	0,66	0,012010	
1,177000	0,66	0,010890	
1,188000	0,66	0,008580	
1,199000	0,66	0,010050	
1,210000	0,66	0,010850	
1,221000	0,66	0,012700	
1,232000	0,66	0,013520	
1,243000	0,66	0,009550	
1,254000	0,66	0,002230	
1,265000	0,66	0,000370	
1,276000	0,66	-0,007040	
1,287000	0,66	-0,023190	
1,298000	0,66	-0,071730	
1,309000	0,66	-0,202780	
1,320000	0,66	-0,429590	
1,331000	0,66	-0,675870	
1,342000	0,66	-0,833850	
1,353000	0,66	-0,857620	
1,364000	0,66	-0,757720	
1,375000	0,66	-0,593640	
1,386000	0,66	-0,397330	
1,397000	0,66	-0,215510	
1,408000	0,66	-0,066760	
1,419000	0,66	0,049880	
1,430000	0,66	0,119230	
1,441000	0,66	0,170950	
1,452000	0,66	0,225730	
1,463000	0,66	0,267380	
1,474000	0,66	0,299440	
1,485000	0,66	0,338140	
1,496000	0,66	0,390920	
1,507000	0,66	0,448150	
1,518000	0,66	0,509130	
1,529000	0,66	0,580770	
1,540000	0,66	0,660800	
1,551000	0,66	0,714720	
1,562000	0,66	0,771890	
1,573000	0,66	0,822800	
1,584000	0,66	0,848520	
1,595000	0,66	0,846820	
1,606000	0,66	0,817560	
1,617000	0,66	0,753640	
1,628000	0,66	0,643710	
1,639000	0,66	0,517310	
1,650000	0,66	0,370080	
1,661000	0,66	0,214590	
1,672000	0,66	0,071670	
1,683000	0,66	-0,039990	
1,694000	0,66	-0,125170	
1,705000	0,66	-0,192440	
1,716000	0,66	-0,225400	
1,727000	0,66	-0,226060	
1,738000	0,66	-0,209170	
1,749000	0,66	-0,185680	
1,760000	0,66	-0,147470	
1,771000	0,66	-0,098230	
1,782000	0,66	-0,051250	
1,793000	0,66	-0,002270	
1,804000	0,66	0,043740	
1,815000	0,66	0,083530	
1,826000	0,66	0,127560	
1,837000	0,66	0,168220	
1,848000	0,66	0,193760	
1,859000	0,66	0,216010	
1,870000	0,66	0,239210	
1,881000	0,66	0,263230	
1,892000	0,66	0,269060	
1,903000	0,66	0,268630	
1,914000	0,66	0,279850	
1,925000	0,66	0,285430	
1,936000	0,66	0,280640	
1,947000	0,66	0,290220	
1,958000	0,66	0,299020	
1,969000	0,66	0,302400	
1,980000	0,66	0,315710	
1,991000	0,66	0,325340	
2,002000	0,66	0,321020	
2,013000	0,66	0,317080	
2,024000	0,66	0,316700	
2,035000	0,66	0,322760	
2,046000	0,66	0,329220	
2,057000	0,66	0,333010	
2,068000	0,66	0,335600	
2,079000	0,66	0,330220	
2,090000	0,66	0,329150	
2,101000	0,66	0,335880	
2,112000	0,66	0,346720	
2,123000	0,66	0,334780	
2,134000	0,66	0,322780	
2,145000	0,66	0,310490	
2,156000	0,66	0,301250	
2,167000	0,66	0,277950	
2,178000	0,66	0,117460	
2,189000	0,66	-0,283900	
2,200000	0,66	-0,823460	
2,211000	0,66	-1,281000	
2,222000	0,66	-1,536060	
2,233000	0,66	-1,595680	
2,244000	0,66	-1,508120	
2,255000	0,66	-1,348260	
2,266000	0,66	-1,153040	
2,277000	0,66	-0,950900	
2,288000	0,66	-0,761610	
2,299000	0,66	-0,588220	
2,310000	0,66	-0,448330	
2,321000	0,66	-0,339330	
2,332000	0,66	-0,252380	
2,343000	0,66	-0,186260	
2,354000	0,66	-0,139850	
2,365000	0,66	-0,102890	
2,376000	0,66	-0,081050	
2,387000	0,66	-0,062430	
2,398000	0,66	-0,046130	
2,409000	0,66	-0,037970	
2,420000	0,66	-0,036170	
2,431000	0,66	-0,043040	
2,442000	0,66	-0,037350	
2,453000	0,66	-0,022830	
2,464000	0,66	-0,017760	
2,475000	0,66	-0,017770	
2,486000	0,66	-0,018230	
2,497000	0,66	-0,013840	
2,508000	0,66	-0,009840	
2,519000	0,66	-0,012160	
2,530000	0,66	-0,019210	
2,541000	0,66	-0,022120	
2,552000	0,66	-0,019230	
2,563000	0,66	-0,018220	
2,574000	0,66	-0,013420	
2,585000	0,66	-0,009130	
2,596000	0,66	-0,007560	
2,607000	0,66	0,004740	
2,618000	0,66	0,011350	
2,629000	0,66	0,011200	
2,640000	0,66	-0,000540	
2,651000	0,66	-0,006960	
2,662000	0,66	-0,006000	
2,673000	0,66	0,000230	
2,684000	0,66	-0,000530	
2,695000	0,66	-0,006920	
2,706000	0,66	-0,009370	
2,717000	0,66	-0,007170	
2,728000	0,66	-0,019430	
2,739000	0,66	-0,024580	
2,750000	0,66	-0,023560	
2,761000	0,66	-0,015640	
2,772000	0,66	-0,004300	
2,783000	0,66	-0,006710	
2,794000	0,66	-0,011790	
2,805000	0,66	-0,009590	
2,816000	0,66	-0,009640	
2,827000	0,66	-0,009670	
2,838000	0,66	-0,013130	
2,849000	0,66	-0,018560	
2,860000	0,66	-0,024230	
2,871000	0,66	-0,020850	
2,882000	0,66	-0,018560	
2,893000	0,66	-0,010620	
2,904000	0,66	-0,009540	
2,915000	0,66	-0,017710	
2,926000	0,66	-0,021720	
2,937000	0,66	-0,016590	
2,948000	0,66	-0,010640	
2,959000	0,66	-0,014280	
2,970000	0,66	-0,009750	
2,981000	0,66	-0,017190	
2,992000	0,66	-0,021570	
3,003000	0,66	-0,020210	
3,014000	0,66	-0,024840	
3,025000	0,66	-0,023380	
3,036000	0,66	-0,021370	
3,047000	0,66	-0,020970	
3,058000	0,66	-0,012470	
3,069000	0,66	-0,000700	
3,080000	0,66	0,010250	
3,091000	0,66	0,002620	
3,102000	0,66	-0,014650	
3,113000	0,66	-0,015210	
3,124000	0,66	-0,011620	
3,135000	0,66	-0,016390	
3,146000	0,66	-0,027890	
3,157000	0,66	-0,029520	
3,168000	0,66	-0,021260	
3,179000	0,66	-0,015290	
3,190000	0,66	-0,010050	
3,201000	0,66	-0,014520	
3,212000	0,66	-0,023730	
3,223000	0,66	-0,026920	
3,234000	0,66	-0,022330	
3,245000	0,66	-0,017620	
3,256000	0,66	-0,015050	
3,267000	0,66	-0,004620	
3,278000	0,66	0,001780	
3,289000	0,66	0,000970	
3,300000	0,66	0,009230	
3,311000	0,66	0,013970	
3,322000	0,66	0,005830	
3,333000	0,66	-0,005990	
3,344000	0,66	-0,017310	
3,355000	0,66	-0,007590	
3,366000	0,66	-0,010810	
3,377000	0,66	-0,005520	
3,388000	0,66	-0,010850	
3,399000	0,66	-0,008760	
3,410000	0,66	-0,007390	
3,421000	0,66	-0,009680	
3,432000	0,66	-0,001070	
3,443000	0,66	-0,007400	
3,454000	0,66	-0,014260	
3,465000	0,66	-0,015500	
3,476000	0,66	-0,011500	
3,487000	0,66	-0,021430	
3,498000	0,66	-0,021620	
3,509000	0,66	-0,032480	
3,520000	0,66	-0,032610	
3,531000	0,66	-0,032980	
3,542000	0,66	-0,029740	
3,553000	0,66	-0,028710	
3,564000	0,66	-0,027790	
3,575000	0,66	-0,021530	
3,586000	0,66	-0,015610	
3,597000	0,66	-0,021800	
3,608000	0,66	-0,009420	
3,619000	0,66	-0,006270	
3,630000	0,66	-0,002130	
3,641000	0,66	-0,005780	
3,652000	0,66	-0,018330	
3,663000	0,66	-0,023590	
3,674000	0,66	-0,029930	
3,685000	0,66	-0,034420	
3,696000	0,66	-0,042760	
3,707000	0,66	-0,034200	
3,718000	0,66	-0,025570	
3,729000	0,66	-0,025500	
3,740000	0,66	-0,024120	
3,751000	0,66	-0,028560	
3,762000	0,66	-0,033030	
3,773000	0,66	-0,031070	
3,784000	0,66	-0,023820	
3,795000	0,66	-0,012200	
3,806000	0,66	-0,004810	
3,817000	0,66	-0,013160	
3,828000	0,66	-0,020920	
3,839000	0,66	-0,023680	
3,850000	0,66	-0,026260	
3,861000	0,66	-0,023880	
3,872000	0,66	-0,024110	
3,883000	0,66	-0,028780	
3,894000	0,66	-0,033810	
3,905000	0,66	-0,033320	
3,916000	0,66	-0,024420	
3,927000	0,66	-0,023100	
3,938000	0,66	-0,023670	
3,949000	0,66	-0,016900	
3,960000	0,66	-0,018310	
3,971000	0,66	-0,012970	
3,982000	0,66	-0,009600	
3,993000	0,66	-0,023210	
4,004000	0,66	-0,033810	
4,015000	0,66	-0,038550	
4,026000	0,66	-0,042450	
4,037000	0,66	-0,038380	
4,048000	0,66	-0,031660	
4,059000	0,66	-0,023470	
4,070000	0,66	-0,021070	
4,081000	0,66	-0,013790	
4,092000	0,66	-0,008270	
4,103000	0,66	-0,016350	
4,114000	0,66	-0,028070	
4,125000	0,66	-0,023770	
4,136000	0,66	-0,025340	
4,147000	0,66	-0,017820	
4,158000	0,66	-0,016070	
4,169000	0,66	-0,015860	
4,180000	0,66	-0,019090	
4,191000	0,66	-0,027460	
4,202000	0,66	-0,024450	
4,213000	0,66	-0,019030	
4,224000	0,66	-0,002810	
4,235000	0,66	-0,010300	
4,246000	0,66	-0,019170	
4,257000	0,66	-0,015930	
4,268000	0,66	-0,015700	
4,279000	0,66	-0,017100	
4,290000	0,66	-0,018540	
4,301000	0,66	-0,010230	
4,312000	0,66	-0,019430	
4,323000	0,66	-0,032390	
4,334000	0,66	-0,026190	
4,345000	0,66	-0,024560	
4,356000	0,66	-0,026400	
4,367000	0,66	-0,024730	
4,378000	0,66	-0,027520	
4,389000	0,66	-0,031340	
4,400000	0,66	-0,032820	
4,411000	0,66	-0,029190	
4,422000	0,66	-0,031130	
4,433000	0,66	-0,033750	
4,444000	0,66	-0,029830	
4,455000	0,66	-0,030150	
4,466000	0,66	-0,029120	
4,477000	0,66	-0,020320	
4,488000	0,66	-0,014060	
4,499000	0,66	-0,012330	
4,510000	0,66	-0,020260	
4,521000	0,66	-0,029020	
4,532000	0,66	-0,027670	
4,543000	0,66	-0,020520	
4,554000	0,66	-0,014800	
4,565000	0,66	-0,018550	
4,576000	0,66	-0,027770	
4,587000	0,66	-0,029140	
4,598000	0,66	-0,018780	
4,609000	0,66	-0,007610	
4,620000	0,66	-0,001470	
4,631000	0,66	0,001160	
4,642000	0,66	-0,006750	
4,653000	0,66	-0,018000	
4,664000	0,66	-0,021160	
4,675000	0,66	-0,016900	
4,686000	0,66	-0,016230	
4,697000	0,66	-0,016600	
4,708000	0,66	-0,025450	
4,719000	0,66	-0,029230	
4,730000	0,66	-0,029330	
4,741000	0,66	-0,013020	
4,752000	0,66	-0,003080	
4,763000	0,66	-0,017120	
4,774000	0,66	-0,023680	
4,785000	0,66	-0,021770	
4,796000	0,66	-0,012340	
4,807000	0,66	-0,010620	
4,818000	0,66	-0,009050	
4,829000	0,66	-0,008830	
4,840000	0,66	0,004590	
4,851000	0,66	0,009490	
4,862000	0,66	0,018410	
4,873000	0,66	0,012020	
4,884000	0,66	0,005380	
4,895000	0,66	-0,006480	
4,906000	0,66	-0,014190	
4,917000	0,66	-0,010080	
4,928000	0,66	-0,009410	
4,939000	0,66	-0,011280	
4,950000	0,66	-0,012050	
4,961000	0,66	-0,010460	
4,972000	0,66	-0,015420	
4,983000	0,66	-0,014900	
4,994000	0,66	-0,013160	
5,005000	0,66	-0,009930	
5,016000	0,66	-0,023930	
5,027000	0,66	-0,035550	
5,038000	0,66	-0,029090	
5,049000	0,66	-0,019360	
5,060000	0,66	-0,007960	
5,071000	0,66	-0,001060	
5,082000	0,66	-0,007240	
5,093000	0,66	-0,016740	
5,104000	0,66	-0,019320	
5,115000	0,66	-0,020020	
5,126000	0,66	-0,016710	
5,137000	0,66	-0,019440	
5,148000	0,66	-0,027520	
5,159000	0,66	-0,022410	
5,170000	0,66	-0,011970	
5,181000	0,66	-0,008330	
5,192000	0,66	-0,004600	
5,203000	0,66	-0,007540	
5,214000	0,66	-0,015260	
5,225000	0,66	-0,016530	
5,236000	0,66	-0,009600	
5,247000	0,66	-0,009970	
5,258000	0,66	-0,015600	
5,269000	0,66	-0,014580	
5,280000	0,66	-0,016310	
5,291000	0,66	-0,015150	
5,302000	0,66	-0,015050	
5,313000	0,66	-0,015450	
5,324000	0,66	-0,006730	
5,335000	0,66	-0,014900	
5,346000	0,66	-0,026570	
5,357000	0,66	-0,034790	
5,368000	0,66	-0,042890	
5,379000	0,66	-0,034590	
5,390000	0,66	-0,022740	
5,401000	0,66	-0,015810	
5,412000	0,66	-0,017270	
5,423000	0,66	-0,021270	
5,434000	0,66	-0,024070	
5,445000	0,66	-0,027840	
5,456000	0,66	-0,025440	
5,467000	0,66	-0,030420	
5,478000	0,66	-0,032360	
5,489000	0,66	-0,028030	
5,500000	0,66	-0,027120	
5,511000	0,66	-0,016770	
5,522000	0,66	-0,015910	
5,533000	0,66	-0,009210	
5,544000	0,66	-0,017720	
5,555000	0,66	-0,029420	
5,566000	0,66	-0,028070	
5,577000	0,66	-0,028060	
5,588000	0,66	-0,037490	
5,599000	0,66	-0,029450	
5,610000	0,66	-0,029360	
5,621000	0,66	-0,023310	
5,632000	0,66	-0,040870	
5,643000	0,66	-0,046800	
5,654000	0,66	-0,034330	
5,665000	0,66	-0,039050	
5,676000	0,66	-0,027610	
5,687000	0,66	-0,022830	
5,698000	0,66	-0,031590	
5,709000	0,66	-0,028820	
5,720000	0,66	-0,035410	
5,731000	0,66	-0,047520	
5,742000	0,66	-0,044870	
5,753000	0,66	-0,039510	
5,764000	0,66	-0,037430	
5,775000	0,66	-0,041640	
5,786000	0,66	-0,043660	
5,797000	0,66	-0,047480	
5,808000	0,66	-0,051690	
5,819000	0,66	-0,064720	
5,830000	0,66	-0,063780	
5,841000	0,66	-0,065480	
5,852000	0,66	-0,064150	
5,863000	0,66	-0,065850	
5,874000	0,66	-0,067350	
5,885000	0,66	-0,064490	
5,896000	0,66	-0,063490	
5,907000	0,66	-0,064920	
5,918000	0,66	-0,069320	
5,929000	0,66	-0,068910	
5,940000	0,66	-0,061490	
5,951000	0,66	-0,057750	
5,962000	0,66	-0,046820	
5,973000	0,66	-0,030360	
5,984000	0,66	-0,029190	
5,995000	0,66	-0,035580	
6,006000	0,66	-0,040790	
6,017000	0,66	-0,036200	
6,028000	0,66	-0,039160	
6,039000	0,66	-0,050600	
6,050000	0,66	-0,055300	
6,061000	0,66	-0,054300	
6,072000	0,66	-0,047360	
6,083000	0,66	-0,064160	
6,094000	0,66	-0,072270	
6,105000	0,66	-0,071580	
6,116000	0,66	-0,068910	
6,127000	0,66	-0,065580	
6,138000	0,66	-0,059050	
6,149000	0,66	-0,055320	
6,160000	0,66	-0,056970	
6,171000	0,66	-0,065080	
6,182000	0,66	-0,066940	
6,193000	0,66	-0,079090	
6,204000	0,66	-0,086010	
6,215000	0,66	-0,094380	
6,226000	0,66	-0,088260	
6,237000	0,66	-0,089040	
6,248000	0,66	-0,087520	
6,259000	0,66	-0,099680	
6,270000	0,66	-0,094730	
6,281000	0,66	-0,081600	
6,292000	0,66	-0,087000	
6,303000	0,66	-0,090580	
6,314000	0,66	-0,078800	
6,325000	0,66	-0,086570	
6,336000	0,66	-0,096440	
6,347000	0,66	-0,096780	
6,358000	0,66	-0,094490	
6,369000	0,66	-0,085920	
6,380000	0,66	-0,086120	
6,391000	0,66	-0,095710	
6,402000	0,66	-0,094720	
6,413000	0,66	-0,099840	
6,424000	0,66	-0,110490	
6,435000	0,66	-0,101160	
6,446000	0,66	-0,098100	
6,457000	0,66	-0,101070	
6,468000	0,66	-0,098970	
6,479000	0,66	-0,098700	
6,490000	0,66	-0,092950	
6,501000	0,66	-0,097580	
6,512000	0,66	-0,098650	
6,523000	0,66	-0,088940	
6,534000	0,66	-0,085750	
6,545000	0,66	-0,089430	
6,556000	0,66	-0,089500	
6,567000	0,66	-0,086840	
6,578000	0,66	-0,095510	
6,589000	0,66	-0,108660	
6,600000	0,66	-0,107150	
6,611000	0,66	-0,103120	
6,622000	0,66	-0,102540	
6,633000	0,66	-0,103330	
6,644000	0,66	-0,099010	
6,655000	0,66	-0,090200	
6,666000	0,66	-0,089040	
6,677000	0,66	-0,089640	
6,688000	0,66	-0,084010	
6,699000	0,66	-0,075350	
6,710000	0,66	-0,070640	
6,721000	0,66	-0,067260	
6,732000	0,66	-0,070280	
6,743000	0,66	-0,079220	
6,754000	0,66	-0,090720	
6,765000	0,66	-0,090530	
6,776000	0,66	-0,084440	
6,787000	0,66	-0,087900	
6,798000	0,66	-0,081360	
6,809000	0,66	-0,077160	
6,820000	0,66	-0,074380	
6,831000	0,66	-0,077880	
6,842000	0,66	-0,082590	
6,853000	0,66	-0,074990	
6,864000	0,66	-0,073750	
6,875000	0,66	-0,083830	
6,886000	0,66	-0,085020	
6,897000	0,66	-0,076500	
6,908000	0,66	-0,076770	
6,919000	0,66	-0,083360	
6,930000	0,66	-0,088110	
6,941000	0,66	-0,089030	
6,952000	0,66	-0,102530	
6,963000	0,66	-0,109410	
6,974000	0,66	-0,099330	
6,985000	0,66	-0,093490	
6,996000	0,66	-0,084710	
7,007000	0,66	-0,078810	
7,018000	0,66	-0,071180	
7,029000	0,66	-0,079150	
7,040000	0,66	-0,083640	
7,051000	0,66	-0,085240	
7,062000	0,66	-0,082960	
7,073000	0,66	-0,077460	
7,084000	0,66	-0,087010	
7,095000	0,66	-0,087200	
7,106000	0,66	-0,083490	
7,117000	0,66	-0,087510	
7,128000	0,66	-0,097320	
7,139000	0,66	-0,097220	
7,150000	0,66	-0,099300	
7,161000	0,66	-0,103060	
7,172000	0,66	-0,087410	
7,183000	0,66	-0,088640	
7,194000	0,66	-0,095090	
7,205000	0,66	-0,108020	
7,216000	0,66	-0,109990	
7,227000	0,66	-0,102300	
7,238000	0,66	-0,100240	
7,249000	0,66	-0,095850	
7,260000	0,66	-0,092680	
7,271000	0,66	-0,100500	
7,282000	0,66	-0,108830	
7,293000	0,66	-0,103200	
7,304000	0,66	-0,098470	
7,315000	0,66	-0,095750	
7,326000	0,66	-0,091270	
7,337000	0,66	-0,088420	
7,348000	0,66	-0,083070	
7,359000	0,66	-0,082480	
7,370000	0,66	-0,088450	
7,381000	0,66	-0,098090	
7,392000	0,66	-0,105780	
7,403000	0,66	-0,104140	
7,414000	0,66	-0,101190	
7,425000	0,66	-0,108090	
7,436000	0,66	-0,110710	
7,447000	0,66	-0,103960	
7,458000	0,66	-0,104710	
7,469000	0,66	-0,104990	
7,480000	0,66	-0,105670	
7,491000	0,66	-0,099250	
7,502000	0,66	-0,096480	
7,513000	0,66	-0,101510	
7,524000	0,66	-0,097210	
7,535000	0,66	-0,097560	
7,546000	0,66	-0,107990	
7,557000	0,66	-0,116890	
7,568000	0,66	-0,113710	
7,579000	0,66	-0,113500	
7,590000	0,66	-0,112130	
7,601000	0,66	-0,113850	
7,612000	0,66	-0,114010	
7,623000	0,66	-0,109670	
7,634000	0,66	-0,111890	
7,645000	0,66	-0,115420	
7,656000	0,66	-0,113150	
7,667000	0,66	-0,115160	
7,678000	0,66	-0,116320	
7,689000	0,66	-0,107200	
7,700000	0,66	-0,102590	
7,711000	0,66	-0,107000	
7,722000	0,66	-0,104250	
7,733000	0,66	-0,103740	
7,744000	0,66	-0,108420	
7,755000	0,66	-0,113040	
7,766000	0,66	-0,120490	
7,777000	0,66	-0,125950	
7,788000	0,66	-0,118850	
7,799000	0,66	-0,110890	
7,810000	0,66	-0,106750	
7,821000	0,66	-0,110860	
7,832000	0,66	-0,119530	
7,843000	0,66	-0,122310	
7,854000	0,66	-0,125340	
7,865000	0,66	-0,119520	
7,876000	0,66	-0,100610	
7,887000	0,66	-0,091330	
7,898000	0,66	-0,090490	
7,909000	0,66	-0,086250	
7,920000	0,66	-0,091940	
7,931000	0,66	-0,094160	
7,942000	0,66	-0,084460	
7,953000	0,66	-0,079540	
7,964000	0,66	-0,085420	
7,975000	0,66	-0,096450	
7,986000	0,66	-0,103240	
7,997000	0,66	-0,111080	
8,008000	0,66	-0,108910	
8,019000	0,66	-0,101790	
8,030000	0,66	-0,105730	
8,041000	0,66	-0,107700	
8,052000	0,66	-0,099550	
8,063000	0,66	-0,095650	
8,074000	0,66	-0,096380	
8,085000	0,66	-0,091590	
8,096000	0,66	-0,096120	
8,107000	0,66	-0,098510	
8,118000	0,66	-0,089000	
8,129000	0,66	-0,084570	
8,140000	0,66	-0,079540	
8,151000	0,66	-0,085500	
8,162000	0,66	-0,097180	
8,173000	0,66	-0,097950	
8,184000	0,66	-0,091690	
8,195000	0,66	-0,099460	
8,206000	0,66	-0,105160	
8,217000	0,66	-0,104680	
8,228000	0,66	-0,096800	
8,239000	0,66	-0,094990	
8,250000	0,66	-0,097770	
8,261000	0,66	-0,109610	
8,272000	0,66	-0,119960	
8,283000	0,66	-0,112710	
8,294000	0,66	-0,107450	
8,305000	0,66	-0,112210	
8,316000	0,66	-0,106270	
8,327000	0,66	-0,107680	
8,338000	0,66	-0,110560	
8,349000	0,66	-0,105710	
8,360000	0,66	-0,104090	
8,371000	0,66	-0,101410	
8,382000	0,66	-0,101320	
8,393000	0,66	-0,107560	
8,404000	0,66	-0,111740	
8,415000	0,66	-0,118720	
8,426000	0,66	-0,124790	
8,437000	0,66	-0,114320	
8,448000	0,66	-0,109990	
8,459000	0,66	-0,118470	
8,470000	0,66	-0,121270	
8,481000	0,66	-0,113630	
8,492000	0,66	-0,112200	
8,503000	0,66	-0,123660	
8,514000	0,66	-0,121250	
8,525000	0,66	-0,128620	
8,536000	0,66	-0,137250	
8,547000	0,66	-0,134950	
8,558000	0,66	-0,120680	
8,569000	0,66	-0,116910	
8,580000	0,66	-0,117030	
8,591000	0,66	-0,111170	
8,602000	0,66	-0,105860	
8,613000	0,66	-0,112000	
8,624000	0,66	-0,112200	
8,635000	0,66	-0,106380	
8,646000	0,66	-0,103900	
8,657000	0,66	-0,094500	
8,668000	0,66	-0,098190	
8,679000	0,66	-0,109410	
8,690000	0,66	-0,105570	
8,701000	0,66	-0,105550	
8,712000	0,66	-0,108180	
8,723000	0,66	-0,102500	
8,734000	0,66	-0,094680	
8,745000	0,66	-0,090570	
8,756000	0,66	-0,090430	
8,767000	0,66	-0,087560	
8,778000	0,66	-0,084790	
8,789000	0,66	-0,088450	
8,800000	0,66	-0,099100	
8,811000	0,66	-0,097580	
8,822000	0,66	-0,086020	
8,833000	0,66	-0,083790	
8,844000	0,66	-0,091070	
8,855000	0,66	-0,095010	
8,866000	0,66	-0,100430	
8,877000	0,66	-0,108330	
8,888000	0,66	-0,119240	
8,899000	0,66	-0,121480	
8,910000	0,66	-0,123810	
8,921000	0,66	-0,115330	
8,932000	0,66	-0,113300	
8,943000	0,66	-0,115450	
8,954000	0,66	-0,131810	
8,965000	0,66	-0,119990	
8,976000	0,66	-0,123650	
8,987000	0,66	-0,127180	
8,998000	0,66	-0,120430	
9,009000	0,66	-0,136030	
9,020000	0,66	-0,135220	
9,031000	0,66	-0,133180	
9,042000	0,66	-0,129930	
9,053000	0,66	-0,130710	
9,064000	0,66	-0,107330	
9,075000	0,66	-0,092250	
9,086000	0,66	-0,090720	
9,097000	0,66	-0,083050	
9,108000	0,66	-0,077640	
9,119000	0,66	-0,079900	
9,130000	0,66	-0,088000	
9,141000	0,66	-0,098180	
9,152000	0,66	-0,108100	
9,163000	0,66	-0,111100	
9,174000	0,66	-0,105360	
9,185000	0,66	-0,098930	
9,196000	0,66	-0,098370	
9,207000	0,66	-0,091650	
9,218000	0,66	-0,098080	
9,229000	0,66	-0,106020	
9,240000	0,66	-0,116360	
9,251000	0,66	-0,120940	
9,262000	0,66	-0,120570	
9,273000	0,66	-0,115480	
9,284000	0,66	-0,108550	
9,295000	0,66	-0,109380	
9,306000	0,66	-0,110220	
9,317000	0,66	-0,113740	
9,328000	0,66	-0,112810	
9,339000	0,66	-0,115700	
9,350000	0,66	-0,113600	
9,361000	0,66	-0,111100	
9,372000	0,66	-0,118290	
9,383000	0,66	-0,117400	
9,394000	0,66	-0,116030	
9,405000	0,66	-0,117700	
9,416000	0,66	-0,115000	
9,427000	0,66	-0,116160	
9,438000	0,66	-0,116310	
9,449000	0,66	-0,115320	
9,460000	0,66	-0,114330	
9,471000	0,66	-0,108540	
9,482000	0,66	-0,103450	
9,493000	0,66	-0,098940	
9,504000	0,66	-0,107060	
9,515000	0,66	-0,119940	
9,526000	0,66	-0,113690	
9,537000	0,66	-0,102390	
9,548000	0,66	-0,101270	
9,559000	0,66	-0,103260	
9,570000	0,66	-0,104580	
9,581000	0,66	-0,105470	
9,592000	0,66	-0,093510	
9,603000	0,66	-0,091190	
9,614000	0,66	-0,107160	
9,625000	0,66	-0,119530	
9,636000	0,66	-0,115610	
9,647000	0,66	-0,107730	
9,658000	0,66	-0,108470	
9,669000	0,66	-0,105350	
9,680000	0,66	-0,099180	
9,691000	0,66	-0,100900	
9,702000	0,66	-0,107400	
9,713000	0,66	-0,105790	
9,724000	0,66	-0,114230	
9,735000	0,66	-0,114460	
9,746000	0,66	-0,104850	
9,757000	0,66	-0,105390	
9,768000	0,66	-0,109360	
9,779000	0,66	-0,114760	
9,790000	0,66	-0,116440	
9,801000	0,66	-0,116430	
9,812000	0,66	-0,115020	
9,823000	0,66	-0,114890	
9,834000	0,66	-0,122950	
9,845000	0,66	-0,138030	
9,856000	0,66	-0,147600	
9,867000	0,66	-0,131420	
9,878000	0,66	-0,124340	
9,889000	0,66	-0,129140	
9,900000	0,66	-0,127740	
9,911000	0,66	-0,126710	
9,922000	0,66	-0,129810	
9,933000	0,66	-0,128320	
9,944000	0,66	-0,129500	
9,955000	0,66	-0,123300	
9,966000	0,66	-0,117580	
9,977000	0,66	-0,124130	
9,988000	0,66	-0,128660	
9,999000	0,66	-0,116490	
10,010000	0,66	-0,104960	
10,021000	0,66	-0,099350	
10,032000	0,66	-0,099170	
10,043000	0,66	-0,102410	
10,054000	0,66	-0,100900	
10,065000	0,66	-0,102390	
10,076000	0,66	-0,104670	
10,087000	0,66	-0,103520	
10,098000	0,66	-0,105730	
10,109000	0,66	-0,110040	
10,120000	0,66	-0,116330	
10,131000	0,66	-0,127920	
10,142000	0,66	-0,132250	
10,153000	0,66	-0,128750	
10,164000	0,66	-0,129180	
10,175000	0,66	-0,123410	
10,186000	0,66	-0,116960	
10,197000	0,66	-0,116640	
10,208000	0,66	-0,112230	
10,219000	0,66	-0,105980	
10,230000	0,66	-0,102470	
10,241000	0,66	-0,110090	
10,252000	0,66	-0,122320	
10,263000	0,66	-0,133130	
10,274000	0,66	-0,127590	
10,285000	0,66	-0,111870	
10,296000	0,66	-0,118760	
10,307000	0,66	-0,113130	
10,318000	0,66	-0,107880	
10,329000	0,66	-0,107110	
10,340000	0,66	-0,112350	
10,351000	0,66	-0,108990	
10,362000	0,66	-0,116120	
10,373000	0,66	-0,115620	
10,384000	0,66	-0,105500	
10,395000	0,66	-0,107390	
10,406000	0,66	-0,118690	
10,417000	0,66	-0,108980	
10,428000	0,66	-0,100230	
10,439000	0,66	-0,101520	
10,450000	0,66	-0,115930	
10,461000	0,66	-0,133500	
10,472000	0,66	-0,137370	
10,483000	0,66	-0,132310	
10,494000	0,66	-0,129360	
10,505000	0,66	-0,112940	
10,516000	0,66	-0,111510	
10,527000	0,66	-0,111900	
10,538000	0,66	-0,114540	
10,549000	0,66	-0,114340	
10,560000	0,66	-0,121230	
10,571000	0,66	-0,124380	
10,582000	0,66	-0,119920	
10,593000	0,66	-0,112670	
10,604000	0,66	-0,108430	
10,615000	0,66	-0,103420	
10,626000	0,66	-0,100820	
10,637000	0,66	-0,114110	
10,648000	0,66	-0,121150	
10,659000	0,66	-0,110560	
10,670000	0,66	-0,102490	
10,681000	0,66	-0,101960	
10,692000	0,66	-0,091990	
10,703000	0,66	-0,092870	
10,714000	0,66	-0,098240	
10,725000	0,66	-0,102650	
10,736000	0,66	-0,103830	
10,747000	0,66	-0,105590	
10,758000	0,66	-0,110070	
10,769000	0,66	-0,121500	
10,780000	0,66	-0,127380	
10,791000	0,66	-0,121290	
10,802000	0,66	-0,112840	
10,813000	0,66	-0,107160	
10,824000	0,66	-0,109260	
10,835000	0,66	-0,115680	
10,846000	0,66	-0,120850	
10,857000	0,66	-0,127640	
10,868000	0,66	-0,135920	
10,879000	0,66	-0,136930	
10,890000	0,66	-0,130220	
10,901000	0,66	-0,128110	
10,912000	0,66	-0,126110	
10,923000	0,66	-0,123220	
10,934000	0,66	-0,124810	
10,945000	0,66	-0,123230	
10,956000	0,66	-0,123230	
10,967000	0,66	-0,102380	
10,978000	0,66	-0,103790	
10,989000	0,66	-0,112060	
11,000000	0,66	-0,114530	
11,011000	0,66	-0,120920	
11,022000	0,66	-0,124570	
11,033000	0,66	-0,123310	
11,044000	0,66	-0,122030	
11,055000	0,66	-0,124280	
11,066000	0,66	-0,125020	
11,077000	0,66	-0,128610	
11,088000	0,66	-0,121100	
11,099000	0,66	-0,120230	
11,110000	0,66	-0,120210	
11,121000	0,66	-0,124110	
11,132000	0,66	-0,123890	
11,143000	0,66	-0,126640	
11,154000	0,66	-0,126660	
11,165000	0,66	-0,133400	
11,176000	0,66	-0,131390	
11,187000	0,66	-0,120770	
11,198000	0,66	-0,115510	
11,209000	0,66	-0,127330	
11,220000	0,66	-0,126530	
11,231000	0,66	-0,119130	
11,242000	0,66	-0,122760	
11,253000	0,66	-0,132100	
11,264000	0,66	-0,136940	
11,275000	0,66	-0,134210	
11,286000	0,66	-0,128200	
11,297000	0,66	-0,130300	
11,308000	0,66	-0,133490	
11,319000	0,66	-0,132230	
11,330000	0,66	-0,140360	
11,341000	0,66	-0,141580	
11,352000	0,66	-0,142360	
11,363000	0,66	-0,139310	
11,374000	0,66	-0,134830	
11,385000	0,66	-0,133290	
11,396000	0,66	-0,133760	
11,407000	0,66	-0,132240	
11,418000	0,66	-0,128090	
11,429000	0,66	-0,127630	
11,440000	0,66	-0,127690	
11,451000	0,66	-0,123530	
11,462000	0,66	-0,118110	
11,473000	0,66	-0,122860	
11,484000	0,66	-0,129000	
11,495000	0,66	-0,120040	
11,506000	0,66	-0,119610	
11,517000	0,66	-0,125390	
11,528000	0,66	-0,125920	
11,539000	0,66	-0,124930	
11,550000	0,66	-0,122390	
11,561000	0,66	-0,130840	
11,572000	0,66	-0,135640	
11,583000	0,66	-0,134820	
11,594000	0,66	-0,131120	
11,605000	0,66	-0,129610	
11,616000	0,66	-0,133170	
11,627000	0,66	-0,130410	
11,638000	0,66	-0,121030	
11,649000	0,66	-0,117580	
11,660000	0,66	-0,125100	
11,671000	0,66	-0,134840	
11,682000	0,66	-0,144950	
11,693000	0,66	-0,144790	
11,704000	0,66	-0,132910	
11,715000	0,66	-0,132650	
11,726000	0,66	-0,135790	
11,737000	0,66	-0,136530	
11,748000	0,66	-0,140980	
11,759000	0,66	-0,130070	
11,770000	0,66	-0,127500	
11,781000	0,66	-0,128650	
11,792000	0,66	-0,132590	
11,803000	0,66	-0,121020	
11,814000	0,66	-0,133660	
11,825000	0,66	-0,137330	
11,836000	0,66	-0,138530	
11,847000	0,66	-0,137640	
11,858000	0,66	-0,142850	
11,869000	0,66	-0,134370	
11,880000	0,66	-0,136350	
11,891000	0,66	-0,138670	
11,902000	0,66	-0,128290	
11,913000	0,66	-0,111930	
11,924000	0,66	-0,109280	
11,935000	0,66	-0,117160	
11,946000	0,66	-0,124170	
11,957000	0,66	-0,128630	
11,968000	0,66	-0,130610	
11,979000	0,66	-0,124060	
11,990000	0,66	-0,115340	
12,001000	0,66	-0,118120	
12,012000	0,66	-0,130410	
12,023000	0,66	-0,128290	
12,034000	0,66	-0,121830	
12,045000	0,66	-0,129620	
12,056000	0,66	-0,134860	
12,067000	0,66	-0,132680	
12,078000	0,66	-0,134430	
12,089000	0,66	-0,135480	
12,100000	0,66	-0,129170	
12,111000	0,66	-0,125720	
12,122000	0,66	-0,126160	
12,133000	0,66	-0,129800	
12,144000	0,66	-0,133280	
12,155000	0,66	-0,134060	
12,166000	0,66	-0,132180	
12,177000	0,66	-0,129700	
12,188000	0,66	-0,131940	
12,199000	0,66	-0,136480	
12,210000	0,66	-0,133470	
12,221000	0,66	-0,125810	
12,232000	0,66	-0,130060	
12,243000	0,66	-0,131750	
12,254000	0,66	-0,121580	
12,265000	0,66	-0,118590	
12,276000	0,66	-0,113820	
12,287000	0,66	-0,112720	
12,298000	0,66	-0,112740	
12,309000	0,66	-0,116520	
12,320000	0,66	-0,122620	
12,331000	0,66	-0,131170	
12,342000	0,66	-0,128770	
12,353000	0,66	-0,125060	
12,364000	0,66	-0,120720	
12,375000	0,66	-0,115610	
12,386000	0,66	-0,106130	
12,397000	0,66	-0,099340	
12,408000	0,66	-0,105620	
12,419000	0,66	-0,102900	
12,430000	0,66	-0,103040	
12,441000	0,66	-0,112650	
12,452000	0,66	-0,120840	
12,463000	0,66	-0,121490	
12,474000	0,66	-0,116270	
12,485000	0,66	-0,121270	
12,496000	0,66	-0,123700	
12,507000	0,66	-0,123900	
12,518000	0,66	-0,123690	
12,529000	0,66	-0,119640	
12,540000	0,66	-0,128800	
12,551000	0,66	-0,129010	
12,562000	0,66	-0,121840	
12,573000	0,66	-0,124160	
12,584000	0,66	-0,132490	
12,595000	0,66	-0,150710	
12,606000	0,66	-0,149530	
12,617000	0,66	-0,133310	
12,628000	0,66	-0,122800	
12,639000	0,66	-0,129270	
12,650000	0,66	-0,130170	
12,661000	0,66	-0,126790	
12,672000	0,66	-0,123390	
12,683000	0,66	-0,120680	
12,694000	0,66	-0,125860	
12,705000	0,66	-0,117460	
12,716000	0,66	-0,104810	
12,727000	0,66	-0,104790	
12,738000	0,66	-0,102160	
12,749000	0,66	-0,101850	
12,760000	0,66	-0,104450	
12,771000	0,66	-0,117240	
12,782000	0,66	-0,126710	
12,793000	0,66	-0,134290	
12,804000	0,66	-0,131780	
12,815000	0,66	-0,136000	
12,826000	0,66	-0,134960	
12,837000	0,66	-0,132510	
12,848000	0,66	-0,138800	
12,859000	0,66	-0,131870	
12,870000	0,66	-0,119960	
12,881000	0,66	-0,126760	
12,892000	0,66	-0,138310	
12,903000	0,66	-0,140340	
12,914000	0,66	-0,135180	
12,925000	0,66	-0,136800	
12,936000	0,66	-0,144510	
12,947000	0,66	-0,138050	
12,958000	0,66	-0,129630	
12,969000	0,66	-0,130750	
12,980000	0,66	-0,138200	
12,991000	0,66	-0,143180	
13,002000	0,66	-0,144180	
13,013000	0,66	-0,146040	
13,024000	0,66	-0,137270	
13,035000	0,66	-0,126210	
13,046000	0,66	-0,127080	
13,057000	0,66	-0,127950	
13,068000	0,66	-0,134020	
13,079000	0,66	-0,138100	
13,090000	0,66	-0,137980	
13,101000	0,66	-0,124910	
13,112000	0,66	-0,122730	
13,123000	0,66	-0,133100	
13,134000	0,66	-0,133530	
13,145000	0,66	-0,139290	
13,156000	0,66	-0,137290	
13,167000	0,66	-0,125560	
13,178000	0,66	-0,122610	
13,189000	0,66	-0,130570	
13,200000	0,66	-0,124180	
13,211000	0,66	-0,128150	
13,222000	0,66	-0,123460	
13,233000	0,66	-0,137820	
13,244000	0,66	-0,143500	
13,255000	0,66	-0,147480	
13,266000	0,66	-0,148070	
13,277000	0,66	-0,147770	
13,288000	0,66	-0,152410	
13,299000	0,66	-0,150430	
13,310000	0,66	-0,155620	
13,321000	0,66	-0,160070	
13,332000	0,66	-0,157410	
13,343000	0,66	-0,160820	
13,354000	0,66	-0,155940	
13,365000	0,66	-0,135240	
13,376000	0,66	-0,128080	
13,387000	0,66	-0,136450	
13,398000	0,66	-0,138190	
13,409000	0,66	-0,140750	
13,420000	0,66	-0,133340	
13,431000	0,66	-0,133530	
13,442000	0,66	-0,134240	
13,453000	0,66	-0,140190	
13,464000	0,66	-0,143310	
13,475000	0,66	-0,142790	
13,486000	0,66	-0,146910	
13,497000	0,66	-0,149060	
13,508000	0,66	-0,134720	
13,519000	0,66	-0,125080	
13,530000	0,66	-0,125100	
13,541000	0,66	-0,126900	
13,552000	0,66	-0,126290	
13,563000	0,66	-0,118540	
13,574000	0,66	-0,113370	
13,585000	0,66	-0,121510	
13,596000	0,66	-0,131170	
13,607000	0,66	-0,134320	
13,618000	0,66	-0,134350	
13,629000	0,66	-0,136350	
13,640000	0,66	-0,141460	
13,651000	0,66	-0,142350	
13,662000	0,66	-0,144630	
13,673000	0,66	-0,144400	
13,684000	0,66	-0,142450	
13,695000	0,66	-0,134550	
13,706000	0,66	-0,133170	
13,717000	0,66	-0,140330	
13,728000	0,66	-0,150140	
13,739000	0,66	-0,159220	
13,750000	0,66	-0,156860	
13,761000	0,66	-0,147790	
13,772000	0,66	-0,135790	
13,783000	0,66	-0,138360	
13,794000	0,66	-0,139180	
13,805000	0,66	-0,145010	
13,816000	0,66	-0,142930	
13,827000	0,66	-0,137720	
13,838000	0,66	-0,130660	
13,849000	0,66	-0,128330	
13,860000	0,66	-0,132810	
13,871000	0,66	-0,140560	
13,882000	0,66	-0,139720	
13,893000	0,66	-0,146200	
13,904000	0,66	-0,146630	
13,915000	0,66	-0,144830	
13,926000	0,66	-0,148690	
13,937000	0,66	-0,143850	
13,948000	0,66	-0,139910	
13,959000	0,66	-0,135550	
13,970000	0,66	-0,136540	
13,981000	0,66	-0,133090	
13,992000	0,66	-0,127420	
14,003000	0,66	-0,134250	
14,014000	0,66	-0,136810	
14,025000	0,66	-0,130990	
14,036000	0,66	-0,133580	
14,047000	0,66	-0,134630	
14,058000	0,66	-0,136000	
14,069000	0,66	-0,138040	
14,080000	0,66	-0,145290	
14,091000	0,66	-0,153010	
14,102000	0,66	-0,142800	
14,113000	0,66	-0,149730	
14,124000	0,66	-0,156770	
14,135000	0,66	-0,149030	
14,146000	0,66	-0,142180	
14,157000	0,66	-0,140970	
14,168000	0,66	-0,148760	
14,179000	0,66	-0,151090	
14,190000	0,66	-0,148350	
14,201000	0,66	-0,152720	
14,212000	0,66	-0,146100	
14,223000	0,66	-0,128470	
14,234000	0,66	-0,111950	
14,245000	0,66	-0,116910	
14,256000	0,66	-0,128540	
14,267000	0,66	-0,129770	
14,278000	0,66	-0,134110	
14,289000	0,66	-0,142610	
14,300000	0,66	-0,146680	
14,311000	0,66	-0,140650	
14,322000	0,66	-0,137020	
14,333000	0,66	-0,144270	
14,344000	0,66	-0,144790	
14,355000	0,66	-0,141990	
14,366000	0,66	-0,145540	
14,377000	0,66	-0,148210	
14,388000	0,66	-0,145260	
14,399000	0,66	-0,143780	
14,410000	0,66	-0,144490	
14,421000	0,66	-0,140680	
14,432000	0,66	-0,137290	
14,443000	0,66	-0,127770	
14,454000	0,66	-0,139380	
14,465000	0,66	-0,153400	
14,476000	0,66	-0,139680	
14,487000	0,66	-0,154220	
14,498000	0,66	-0,161400	
14,509000	0,66	-0,152930	
14,520000	0,66	-0,151790	
14,531000	0,66	-0,158310	
14,542000	0,66	-0,151370	
14,553000	0,66	-0,141370	
14,564000	0,66	-0,138220	
14,575000	0,66	-0,143020	
14,586000	0,66	-0,142880	
14,597000	0,66	-0,136330	
14,608000	0,66	-0,134050	
14,619000	0,66	-0,133670	
14,630000	0,66	-0,147590	
14,641000	0,66	-0,145470	
14,652000	0,66	-0,145640	
14,663000	0,66	-0,152730	
14,674000	0,66	-0,153130	
14,685000	0,66	-0,146580	
14,696000	0,66	-0,145400	
14,707000	0,66	-0,158970	
14,718000	0,66	-0,156510	
14,729000	0,66	-0,151000	
14,740000	0,66	-0,155430	
14,751000	0,66	-0,156060	
14,762000	0,66	-0,155930	
14,773000	0,66	-0,149330	
14,784000	0,66	-0,155880	
14,795000	0,66	-0,159660	
14,806000	0,66	-0,148740	
14,817000	0,66	-0,135700	
14,828000	0,66	-0,135030	
14,839000	0,66	-0,143250	
14,850000	0,66	-0,151140	
14,861000	0,66	-0,154760	
14,872000	0,66	-0,160400	
14,883000	0,66	-0,166840	
14,894000	0,66	-0,169040	
14,905000	0,66	-0,176590	
14,916000	0,66	-0,172220	
14,927000	0,66	-0,161040	
14,938000	0,66	-0,148620	
14,949000	0,66	-0,149550	
14,960000	0,66	-0,159780	
14,971000	0,66	-0,166520	
14,982000	0,66	-0,160430	
14,993000	0,66	-0,151980	
15,004000	0,66	-0,154450	
15,015000	0,66	-0,149780	
15,026000	0,66	-0,148090	
15,037000	0,66	-0,149440	
15,048000	0,66	-0,146290	
15,059000	0,66	-0,138400	
15,070000	0,66	-0,126250	
15,081000	0,66	-0,130530	
15,092000	0,66	-0,140250	
15,103000	0,66	-0,151670	
15,114000	0,66	-0,154630	
15,125000	0,66	-0,159710	
15,136000	0,66	-0,158160	
15,147000	0,66	-0,155090	
15,158000	0,66	-0,157270	
15,169000	0,66	-0,152220	
15,180000	0,66	-0,146950	
15,191000	0,66	-0,154170	
15,202000	0,66	-0,143570	
15,213000	0,66	-0,129450	
15,224000	0,66	-0,126830	
15,235000	0,66	-0,138510	
15,246000	0,66	-0,148900	
15,257000	0,66	-0,145760	
15,268000	0,66	-0,141900	
15,279000	0,66	-0,164270	
15,290000	0,66	-0,165930	
15,301000	0,66	-0,164350	
15,312000	0,66	-0,162650	
15,323000	0,66	-0,155450	
15,334000	0,66	-0,153950	
15,345000	0,66	-0,153210	
15,356000	0,66	-0,157220	
15,367000	0,66	-0,152560	
15,378000	0,66	-0,149870	
15,389000	0,66	-0,155520	
15,400000	0,66	-0,157760	
15,411000	0,66	-0,149180	
15,422000	0,66	-0,143350	
15,433000	0,66	-0,133620	
15,444000	0,66	-0,134830	
15,455000	0,66	-0,140660	
15,466000	0,66	-0,148180	
15,477000	0,66	-0,150870	
15,488000	0,66	-0,158040	
15,499000	0,66	-0,160540	
15,510000	0,66	-0,156740	
15,521000	0,66	-0,146550	
15,532000	0,66	-0,151940	
15,543000	0,66	-0,150400	
15,554000	0,66	-0,153330	
15,565000	0,66	-0,149310	
15,576000	0,66	-0,146120	
15,587000	0,66	-0,151700	
15,598000	0,66	-0,150970	
15,609000	0,66	-0,153270	
15,620000	0,66	-0,155860	
15,631000	0,66	-0,162000	
15,642000	0,66	-0,161900	
15,653000	0,66	-0,150210	
15,664000	0,66	-0,137260	
15,675000	0,66	-0,136340	
15,686000	0,66	-0,140280	
15,697000	0,66	-0,133260	
15,708000	0,66	-0,133630	
15,719000	0,66	-0,146220	
15,730000	0,66	-0,151630	
15,741000	0,66	-0,154510	
15,752000	0,66	-0,159140	
15,763000	0,66	-0,164220	
15,774000	0,66	-0,170500	
15,785000	0,66	-0,167760	
15,796000	0,66	-0,159660	
15,807000	0,66	-0,157880	
15,818000	0,66	-0,160910	
15,829000	0,66	-0,157360	
15,840000	0,66	-0,145570	
15,851000	0,66	-0,145320	
15,862000	0,66	-0,140800	
15,873000	0,66	-0,149740	
15,884000	0,66	-0,142820	
15,895000	0,66	-0,142040	
15,906000	0,66	-0,133000	
15,917000	0,66	-0,140450	
15,928000	0,66	-0,154130	
15,939000	0,66	-0,156600	
15,950000	0,66	-0,141560	
15,961000	0,66	-0,139540	
15,972000	0,66	-0,144940	
15,983000	0,66	-0,149210	
15,994000	0,66	-0,160360	
16,005000	0,66	-0,167530	
16,016000	0,66	-0,170530	
16,027000	0,66	-0,161960	
16,038000	0,66	-0,162350	
16,049000	0,66	-0,152830	
16,060000	0,66	-0,158630	
16,071000	0,66	-0,151380	
16,082000	0,66	-0,136190	
16,093000	0,66	-0,143970	
16,104000	0,66	-0,144370	
16,115000	0,66	-0,145860	
16,126000	0,66	-0,141610	
16,137000	0,66	-0,140750	
16,148000	0,66	-0,140100	
16,159000	0,66	-0,144240	
16,170000	0,66	-0,138460	
16,181000	0,66	-0,133730	
16,192000	0,66	-0,142730	
16,203000	0,66	-0,146070	
16,214000	0,66	-0,141680	
16,225000	0,66	-0,149940	
16,236000	0,66	-0,149720	
16,247000	0,66	-0,151710	
16,258000	0,66	-0,154170	
16,269000	0,66	-0,159300	
16,280000	0,66	-0,158300	
16,291000	0,66	-0,159000	
16,302000	0,66	-0,168240	
16,313000	0,66	-0,152900	
16,324000	0,66	-0,141520	
16,335000	0,66	-0,152470	
16,346000	0,66	-0,163750	
16,357000	0,66	-0,166430	
16,368000	0,66	-0,160780	
16,379000	0,66	-0,153330	
16,390000	0,66	-0,149610	
16,401000	0,66	-0,149330	
16,412000	0,66	-0,150330	
16,423000	0,66	-0,145310	
16,434000	0,66	-0,139180	
16,445000	0,66	-0,142350	
16,456000	0,66	-0,143630	
16,467000	0,66	-0,149060	
16,478000	0,66	-0,158710	
16,489000	0,66	-0,158040	
16,500000	0,66	-0,152040	
16,511000	0,66	-0,152730	
16,522000	0,66	-0,163130	
16,533000	0,66	-0,175770	
16,544000	0,66	-0,172840	
16,555000	0,66	-0,167230	
16,566000	0,66	-0,167140	
16,577000	0,66	-0,177030	
16,588000	0,66	-0,176900	
16,599000	0,66	-0,168280	
16,610000	0,66	-0,166630	
16,621000	0,66	-0,165860	
16,632000	0,66	-0,160520	
16,643000	0,66	-0,166710	
16,654000	0,66	-0,162830	
16,665000	0,66	-0,160530	
16,676000	0,66	-0,162900	
16,687000	0,66	-0,155820	
16,698000	0,66	-0,156780	
16,709000	0,66	-0,154360	
16,720000	0,66	-0,150730	
16,731000	0,66	-0,148430	
16,742000	0,66	-0,145910	
16,753000	0,66	-0,149770	
16,764000	0,66	-0,150750	
16,775000	0,66	-0,156610	
16,786000	0,66	-0,149770	
16,797000	0,66	-0,145180	
16,808000	0,66	-0,149440	
16,819000	0,66	-0,145600	
16,830000	0,66	-0,147810	
16,841000	0,66	-0,155940	
16,852000	0,66	-0,159320	
16,863000	0,66	-0,154590	
16,874000	0,66	-0,150880	
16,885000	0,66	-0,148970	
16,896000	0,66	-0,142160	
16,907000	0,66	-0,148070	
16,918000	0,66	-0,150350	
16,929000	0,66	-0,152200	
16,940000	0,66	-0,153050	
16,951000	0,66	-0,156210	
16,962000	0,66	-0,163290	
16,973000	0,66	-0,163610	
16,984000	0,66	-0,170680	
16,995000	0,66	-0,176470	
17,006000	0,66	-0,171020	
17,017000	0,66	-0,174930	
17,028000	0,66	-0,175710	
17,039000	0,66	-0,161730	
17,050000	0,66	-0,154880	
17,061000	0,66	-0,159000	
17,072000	0,66	-0,161660	
17,083000	0,66	-0,161330	
17,094000	0,66	-0,161260	
17,105000	0,66	-0,166250	
17,116000	0,66	-0,171310	
17,127000	0,66	-0,169590	
17,138000	0,66	-0,165140	
17,149000	0,66	-0,170900	
17,160000	0,66	-0,190010	
17,171000	0,66	-0,186340	
17,182000	0,66	-0,170290	
17,193000	0,66	-0,160040	
17,204000	0,66	-0,154660	
17,215000	0,66	-0,153350	
17,226000	0,66	-0,157860	
17,237000	0,66	-0,157270	
17,248000	0,66	-0,158840	
17,259000	0,66	-0,168450	
17,270000	0,66	-0,173460	
17,281000	0,66	-0,179350	
17,292000	0,66	-0,180620	
17,303000	0,66	-0,176140	
17,314000	0,66	-0,169470	
17,325000	0,66	-0,166320	
17,336000	0,66	-0,175640	
17,347000	0,66	-0,177070	
17,358000	0,66	-0,188640	
17,369000	0,66	-0,210010	
17,380000	0,66	-0,207340	
17,391000	0,66	-0,195010	
17,402000	0,66	-0,182380	
17,413000	0,66	-0,168210	
17,424000	0,66	-0,160270	
17,435000	0,66	-0,161560	
17,446000	0,66	-0,160940	
17,457000	0,66	-0,162200	
17,468000	0,66	-0,169820	
17,479000	0,66	-0,179460	
17,490000	0,66	-0,185180	
17,501000	0,66	-0,188320	
17,512000	0,66	-0,181650	
17,523000	0,66	-0,187440	
17,534000	0,66	-0,198100	
17,545000	0,66	-0,187470	
17,556000	0,66	-0,181160	
17,567000	0,66	-0,184440	
17,578000	0,66	-0,193490	
17,589000	0,66	-0,190280	
17,600000	0,66	-0,183440	
17,611000	0,66	-0,180160	
17,622000	0,66	-0,175740	
17,633000	0,66	-0,186720	
17,644000	0,66	-0,187730	
17,655000	0,66	-0,173410	
17,666000	0,66	-0,167160	
17,677000	0,66	-0,174070	
17,688000	0,66	-0,187020	
17,699000	0,66	-0,193990	
17,710000	0,66	-0,190770	
17,721000	0,66	-0,185040	
17,732000	0,66	-0,177860	
17,743000	0,66	-0,174420	
17,754000	0,66	-0,169840	
17,765000	0,66	-0,170490	
17,776000	0,66	-0,178090	
17,787000	0,66	-0,176780	
17,798000	0,66	-0,174990	
17,809000	0,66	-0,177660	
17,820000	0,66	-0,181780	
17,831000	0,66	-0,181840	
17,842000	0,66	-0,171510	
17,853000	0,66	-0,167510	
17,864000	0,66	-0,168880	
17,875000	0,66	-0,163170	
17,886000	0,66	-0,162340	
17,897000	0,66	-0,161620	
17,908000	0,66	-0,175110	
17,919000	0,66	-0,187820	
17,930000	0,66	-0,190570	
17,941000	0,66	-0,182040	
17,952000	0,66	-0,181560	
17,963000	0,66	-0,188080	
17,974000	0,66	-0,191770	
17,985000	0,66	-0,193000	
17,996000	0,66	-0,184020	
18,007000	0,66	-0,169840	
18,018000	0,66	-0,159710	
18,029000	0,66	-0,163770	
18,040000	0,66	-0,175340	
18,051000	0,66	-0,174080	
18,062000	0,66	-0,182690	
18,073000	0,66	-0,179150	
18,084000	0,66	-0,190290	
18,095000	0,66	-0,189930	
18,106000	0,66	-0,186620	
18,117000	0,66	-0,184480	
18,128000	0,66	-0,173100	
18,139000	0,66	-0,170450	
18,150000	0,66	-0,172030	
18,161000	0,66	-0,173030	
18,172000	0,66	-0,168200	
18,183000	0,66	-0,168510	
18,194000	0,66	-0,175060	
18,205000	0,66	-0,182480	
18,216000	0,66	-0,179280	
18,227000	0,66	-0,172370	
18,238000	0,66	-0,167570	
18,249000	0,66	-0,163530	
18,260000	0,66	-0,163120	
18,271000	0,66	-0,166820	
18,282000	0,66	-0,173260	
18,293000	0,66	-0,172950	
18,304000	0,66	-0,163350	
18,315000	0,66	-0,161290	
18,326000	0,66	-0,159030	
18,337000	0,66	-0,153380	
18,348000	0,66	-0,154700	
18,359000	0,66	-0,160540	
18,370000	0,66	-0,168190	
18,381000	0,66	-0,165960	
18,392000	0,66	-0,162550	
18,403000	0,66	-0,160770	
18,414000	0,66	-0,158730	
18,425000	0,66	-0,167380	
18,436000	0,66	-0,179890	
18,447000	0,66	-0,178860	
18,458000	0,66	-0,175780	
18,469000	0,66	-0,175110	
18,480000	0,66	-0,168340	
18,491000	0,66	-0,165440	
18,502000	0,66	-0,164900	
18,513000	0,66	-0,160560	
18,524000	0,66	-0,154090	
18,535000	0,66	-0,154500	
18,546000	0,66	-0,163810	
18,557000	0,66	-0,159300	
18,568000	0,66	-0,153900	
18,579000	0,66	-0,154500	
18,590000	0,66	-0,159230	
18,601000	0,66	-0,160390	
18,612000	0,66	-0,153920	
18,623000	0,66	-0,149440	
18,634000	0,66	-0,150640	
18,645000	0,66	-0,157610	
18,656000	0,66	-0,171170	
18,667000	0,66	-0,167570	
18,678000	0,66	-0,171840	
18,689000	0,66	-0,178160	
18,700000	0,66	-0,179390	
18,711000	0,66	-0,176300	
18,722000	0,66	-0,178180	
18,733000	0,66	-0,179180	
18,744000	0,66	-0,172970	
18,755000	0,66	-0,168550	
18,766000	0,66	-0,165650	
18,777000	0,66	-0,167530	
18,788000	0,66	-0,172980	
18,799000	0,66	-0,174510	
18,810000	0,66	-0,177330	
18,821000	0,66	-0,170120	
18,832000	0,66	-0,172280	
18,843000	0,66	-0,182620	
18,854000	0,66	-0,171670	
18,865000	0,66	-0,169720	
18,876000	0,66	-0,171970	
18,887000	0,66	-0,157170	
18,898000	0,66	-0,158780	
18,909000	0,66	-0,171650	
18,920000	0,66	-0,175540	
18,931000	0,66	-0,174410	
18,942000	0,66	-0,172230	
18,953000	0,66	-0,180700	
18,964000	0,66	-0,187550	
18,975000	0,66	-0,186650	
18,986000	0,66	-0,180810	
18,997000	0,66	-0,176870	
19,008000	0,66	-0,168820	
19,019000	0,66	-0,164220	
19,030000	0,66	-0,168800	
19,041000	0,66	-0,182870	
19,052000	0,66	-0,185740	
19,063000	0,66	-0,181480	
19,074000	0,66	-0,185630	
19,085000	0,66	-0,188130	
19,096000	0,66	-0,193560	
19,107000	0,66	-0,187950	
19,118000	0,66	-0,186480	
19,129000	0,66	-0,187170	
19,140000	0,66	-0,175760	
19,151000	0,66	-0,170830	
19,162000	0,66	-0,178080	
19,173000	0,66	-0,187140	
19,184000	0,66	-0,187740	
19,195000	0,66	-0,175900	
19,206000	0,66	-0,167090	
19,217000	0,66	-0,168480	
19,228000	0,66	-0,166230	
19,239000	0,66	-0,161580	
19,250000	0,66	-0,160890	
19,261000	0,66	-0,170500	
19,272000	0,66	-0,169860	
19,283000	0,66	-0,173600	
19,294000	0,66	-0,173250	
19,305000	0,66	-0,160570	
19,316000	0,66	-0,166490	
19,327000	0,66	-0,180740	
19,338000	0,66	-0,194300	
19,349000	0,66	-0,187940	
19,360000	0,66	-0,177030	
19,371000	0,66	-0,176330	
19,382000	0,66	-0,171190	
19,393000	0,66	-0,177220	
19,404000	0,66	-0,173520	
19,415000	0,66	-0,170810	
19,426000	0,66	-0,168350	
19,437000	0,66	-0,168530	
19,448000	0,66	-0,173650	
19,459000	0,66	-0,179960	
19,470000	0,66	-0,180990	
19,481000	0,66	-0,181680	
19,492000	0,66	-0,184050	
19,503000	0,66	-0,193020	
19,514000	0,66	-0,189780	
19,525000	0,66	-0,182110	
19,536000	0,66	-0,171890	
19,547000	0,66	-0,176670	
19,558000	0,66	-0,184220	
19,569000	0,66	-0,176520	
19,580000	0,66	-0,179740	
19,591000	0,66	-0,172220	
19,602000	0,66	-0,180400	
19,613000	0,66	-0,185050	
19,624000	0,66	-0,189300	
19,635000	0,66	-0,193940	
19,646000	0,66	-0,193050	
19,657000	0,66	-0,183740	
19,668000	0,66	-0,181710	
19,679000	0,66	-0,175500	
19,690000	0,66	-0,170620	
19,701000	0,66	-0,166630	
19,712000	0,66	-0,167910	
19,723000	0,66	-0,174130	
19,734000	0,66	-0,184070	
19,745000	0,66	-0,189080	
19,756000	0,66	-0,186490	
19,767000	0,66	-0,188090	
19,778000	0,66	-0,189750	
19,789000	0,66	-0,188060	
19,800000	0,66	-0,183310	
19,811000	0,66	-0,179130	
19,822000	0,66	-0,176530	
19,833000	0,66	-0,183290	
19,844000	0,66	-0,191790	
19,855000	0,66	-0,191400	
19,866000	0,66	-0,197400	
19,877000	0,66	-0,201600	
19,888000	0,66	-0,191640	
19,899000	0,66	-0,190160	
19,910000	0,66	-0,195200	
19,921000	0,66	-0,183420	
19,932000	0,66	-0,173210	
19,943000	0,66	-0,178120	
19,954000	0,66	-0,186360	
19,965000	0,66	-0,195540	
19,976000	0,66	-0,196290	
19,987000	0,66	-0,190040	
19,998000	0,66	-0,195900	
20,009000	0,66	-0,206650	
20,020000	0,66	-0,206870	
20,031000	0,66	-0,199640	
20,042000	0,66	-0,185840	
20,053000	0,66	-0,185540	
20,064000	0,66	-0,191340	
20,075000	0,66	-0,201730	
20,086000	0,66	-0,198570	
20,097000	0,66	-0,194490	
20,108000	0,66	-0,201530	
20,119000	0,66	-0,203620	
20,130000	0,66	-0,203800	
20,141000	0,66	-0,201580	
20,152000	0,66	-0,196300	
20,163000	0,66	-0,194050	
20,174000	0,66	-0,201530	
20,185000	0,66	-0,198520	
20,196000	0,66	-0,204020	
20,207000	0,66	-0,207330	
20,218000	0,66	-0,197570	
20,229000	0,66	-0,190920	
20,240000	0,66	-0,197360	
20,251000	0,66	-0,192000	
20,262000	0,66	-0,193830	
20,273000	0,66	-0,198430	
20,284000	0,66	-0,198510	
20,295000	0,66	-0,188530	
20,306000	0,66	-0,191650	
20,317000	0,66	-0,190430	
20,328000	0,66	-0,179820	
20,339000	0,66	-0,181420	
20,350000	0,66	-0,191600	
20,361000	0,66	-0,195910	
20,372000	0,66	-0,203410	
20,383000	0,66	-0,207520	
20,394000	0,66	-0,211760	
20,405000	0,66	-0,203950	
20,416000	0,66	-0,196610	
20,427000	0,66	-0,192790	
20,438000	0,66	-0,192140	
20,449000	0,66	-0,195030	
20,460000	0,66	-0,192420	
20,471000	0,66	-0,187170	
20,482000	0,66	-0,189110	
20,493000	0,66	-0,189680	
20,504000	0,66	-0,192880	
20,515000	0,66	-0,188340	
20,526000	0,66	-0,188110	
20,537000	0,66	-0,197140	
20,548000	0,66	-0,189500	
20,559000	0,66	-0,173080	
20,570000	0,66	-0,172340	
20,581000	0,66	-0,180630	
20,592000	0,66	-0,188110	
20,603000	0,66	-0,197510	
20,614000	0,66	-0,202380	
20,625000	0,66	-0,198090	
20,636000	0,66	-0,186060	
20,647000	0,66	-0,185560	
20,658000	0,66	-0,184490	
20,669000	0,66	-0,189550	
20,680000	0,66	-0,200570	
20,691000	0,66	-0,208050	
20,702000	0,66	-0,209870	
20,713000	0,66	-0,221480	
20,724000	0,66	-0,213020	
20,735000	0,66	-0,210510	
20,746000	0,66	-0,206540	
20,757000	0,66	-0,203810	
20,768000	0,66	-0,204180	
20,779000	0,66	-0,207870	
20,790000	0,66	-0,211890	
20,801000	0,66	-0,206020	
20,812000	0,66	-0,195550	
20,823000	0,66	-0,181650	
20,834000	0,66	-0,188740	
20,845000	0,66	-0,200500	
20,856000	0,66	-0,198490	
20,867000	0,66	-0,185670	
20,878000	0,66	-0,173790	
20,889000	0,66	-0,185240	
20,900000	0,66	-0,192690	
20,911000	0,66	-0,182780	
20,922000	0,66	-0,182550	
20,933000	0,66	-0,188860	
20,944000	0,66	-0,191210	
20,955000	0,66	-0,188040	
20,966000	0,66	-0,191030	
20,977000	0,66	-0,198730	
20,988000	0,66	-0,206280	
20,999000	0,66	-0,214250	
21,010000	0,66	-0,194710	
21,021000	0,66	-0,188080	
21,032000	0,66	-0,194720	
21,043000	0,66	-0,194700	
21,054000	0,66	-0,193660	
21,065000	0,66	-0,196400	
21,076000	0,66	-0,185940	
21,087000	0,66	-0,198540	
21,098000	0,66	-0,203110	
21,109000	0,66	-0,198760	
21,120000	0,66	-0,192030	
21,131000	0,66	-0,183690	
21,142000	0,66	-0,180960	
21,153000	0,66	-0,179000	
21,164000	0,66	-0,186950	
21,175000	0,66	-0,189060	
21,186000	0,66	-0,187060	
21,197000	0,66	-0,184840	
21,208000	0,66	-0,180030	
21,219000	0,66	-0,178210	
21,230000	0,66	-0,170690	
21,241000	0,66	-0,172330	
21,252000	0,66	-0,182650	
21,263000	0,66	-0,180180	
21,274000	0,66	-0,177330	
21,285000	0,66	-0,178050	
21,296000	0,66	-0,183830	
21,307000	0,66	-0,192690	
21,318000	0,66	-0,191700	
21,329000	0,66	-0,179760	
21,340000	0,66	-0,169680	
21,351000	0,66	-0,175920	
21,362000	0,66	-0,184140	
21,373000	0,66	-0,182030	
21,384000	0,66	-0,184220	
21,395000	0,66	-0,187560	
21,406000	0,66	-0,178320	
21,417000	0,66	-0,180340	
21,428000	0,66	-0,183010	
21,439000	0,66	-0,186940	
21,450000	0,66	-0,187440	
21,461000	0,66	-0,191090	
21,472000	0,66	-0,190820	
21,483000	0,66	-0,192310	
21,494000	0,66	-0,195360	
21,505000	0,66	-0,200850	
21,516000	0,66	-0,202830	
21,527000	0,66	-0,194610	
21,538000	0,66	-0,178220	
21,549000	0,66	-0,182840	
21,560000	0,66	-0,187830	
21,571000	0,66	-0,188900	
21,582000	0,66	-0,186400	
21,593000	0,66	-0,185760	
21,604000	0,66	-0,186220	
21,615000	0,66	-0,187950	
21,626000	0,66	-0,190480	
21,637000	0,66	-0,193520	
21,648000	0,66	-0,196390	
21,659000	0,66	-0,203460	
21,670000	0,66	-0,197550	
21,681000	0,66	-0,199790	
21,692000	0,66	-0,196510	
21,703000	0,66	-0,186110	
21,714000	0,66	-0,171190	
21,725000	0,66	-0,177930	
21,736000	0,66	-0,181660	
21,747000	0,66	-0,179760	
21,758000	0,66	-0,186460	
21,769000	0,66	-0,187900	
21,780000	0,66	-0,193610	
21,791000	0,66	-0,188890	
21,802000	0,66	-0,171600	
21,813000	0,66	-0,171040	
21,824000	0,66	-0,177170	
21,835000	0,66	-0,186650	
21,846000	0,66	-0,194410	
21,857000	0,66	-0,191020	
21,868000	0,66	-0,191750	
21,879000	0,66	-0,200360	
21,890000	0,66	-0,215970	
21,901000	0,66	-0,215830	
21,912000	0,66	-0,213320	
21,923000	0,66	-0,222250	
21,934000	0,66	-0,217340	
21,945000	0,66	-0,203470	
21,956000	0,66	-0,199800	
21,967000	0,66	-0,199240	
21,978000	0,66	-0,199520	
21,989000	0,66	-0,204500	
22,000000	0,66	-0,205180	
22,011000	0,66	-0,191420	
22,022000	0,66	-0,175230	
22,033000	0,66	-0,176010	
22,044000	0,66	-0,179080	
22,055000	0,66	-0,188260	
22,066000	0,66	-0,197630	
22,077000	0,66	-0,204560	
22,088000	0,66	-0,203190	
22,099000	0,66	-0,198530	
22,110000	0,66	-0,193920	
22,121000	0,66	-0,200190	
22,132000	0,66	-0,189600	
22,143000	0,66	-0,188770	
22,154000	0,66	-0,186580	
22,165000	0,66	-0,185430	
22,176000	0,66	-0,199350	
22,187000	0,66	-0,191220	
22,198000	0,66	-0,200170	
22,209000	0,66	-0,200900	
22,220000	0,66	-0,201270	
22,231000	0,66	-0,195350	
22,242000	0,66	-0,191440	
22,253000	0,66	-0,191670	
22,264000	0,66	-0,194890	
22,275000	0,66	-0,198210	
22,286000	0,66	-0,191290	
22,297000	0,66	-0,190130	
22,308000	0,66	-0,187910	
22,319000	0,66	-0,194600	
22,330000	0,66	-0,201440	
22,341000	0,66	-0,200230	
22,352000	0,66	-0,195710	
22,363000	0,66	-0,196550	
22,374000	0,66	-0,190550	
22,385000	0,66	-0,191790	
22,396000	0,66	-0,201270	
22,407000	0,66	-0,201900	
22,418000	0,66	-0,206770	
22,429000	0,66	-0,211450	
22,440000	0,66	-0,208560	
22,451000	0,66	-0,197840	
22,462000	0,66	-0,200290	
22,473000	0,66	-0,207870	
22,484000	0,66	-0,200220	
22,495000	0,66	-0,202590	
22,506000	0,66	-0,201230	
22,517000	0,66	-0,208760	
22,528000	0,66	-0,213580	
22,539000	0,66	-0,223970	
22,550000	0,66	-0,231380	
22,561000	0,66	-0,228400	
22,572000	0,66	-0,219250	
22,583000	0,66	-0,216390	
22,594000	0,66	-0,213170	
22,605000	0,66	-0,207950	
22,616000	0,66	-0,206120	
22,627000	0,66	-0,200200	
22,638000	0,66	-0,203650	
22,649000	0,66	-0,214360	
22,660000	0,66	-0,216540	
22,671000	0,66	-0,222000	
22,682000	0,66	-0,225260	
22,693000	0,66	-0,217350	
22,704000	0,66	-0,213790	
22,715000	0,66	-0,214430	
22,726000	0,66	-0,211540	
22,737000	0,66	-0,208970	
22,748000	0,66	-0,214280	
22,759000	0,66	-0,217810	
22,770000	0,66	-0,213540	
22,781000	0,66	-0,205500	
22,792000	0,66	-0,197290	
22,803000	0,66	-0,201020	
22,814000	0,66	-0,196550	
22,825000	0,66	-0,190640	
22,836000	0,66	-0,188740	
22,847000	0,66	-0,188890	
22,858000	0,66	-0,189930	
22,869000	0,66	-0,190630	
22,880000	0,66	-0,184480	
22,891000	0,66	-0,191320	
22,902000	0,66	-0,191170	
22,913000	0,66	-0,198380	
22,924000	0,66	-0,203540	
22,935000	0,66	-0,201370	
22,946000	0,66	-0,195610	
22,957000	0,66	-0,201080	
22,968000	0,66	-0,206180	
22,979000	0,66	-0,200610	
22,990000	0,66	-0,198810	
23,001000	0,66	-0,210990	
23,012000	0,66	-0,202670	
23,023000	0,66	-0,204600	
23,034000	0,66	-0,202160	
23,045000	0,66	-0,215330	
23,056000	0,66	-0,214890	
23,067000	0,66	-0,213750	
23,078000	0,66	-0,217260	
23,089000	0,66	-0,210740	
23,100000	0,66	-0,202350	
23,111000	0,66	-0,194530	
23,122000	0,66	-0,191370	
23,133000	0,66	-0,194480	
23,144000	0,66	-0,199110	
23,155000	0,66	-0,203330	
23,166000	0,66	-0,210150	
23,177000	0,66	-0,213270	
23,188000	0,66	-0,205530	
23,199000	0,66	-0,206740	
23,210000	0,66	-0,215810	
23,221000	0,66	-0,216440	
23,232000	0,66	-0,212270	
23,243000	0,66	-0,203800	
23,254000	0,66	-0,204920	
23,265000	0,66	-0,208690	
23,276000	0,66	-0,206450	
23,287000	0,66	-0,200190	
23,298000	0,66	-0,200120	
23,309000	0,66	-0,196660	
23,320000	0,66	-0,184090	
23,331000	0,66	-0,181100	
23,342000	0,66	-0,189720	
23,353000	0,66	-0,198130	
23,364000	0,66	-0,200890	
23,375000	0,66	-0,202850	
23,386000	0,66	-0,203590	
23,397000	0,66	-0,205680	
23,408000	0,66	-0,215610	
23,419000	0,66	-0,210820	
23,430000	0,66	-0,201830	
23,441000	0,66	-0,199370	
23,452000	0,66	-0,190070	
23,463000	0,66	-0,194550	
23,474000	0,66	-0,201830	
23,485000	0,66	-0,207570	
23,496000	0,66	-0,217250	
23,507000	0,66	-0,220630	
23,518000	0,66	-0,215790	
23,529000	0,66	-0,210490	
23,540000	0,66	-0,204790	
23,551000	0,66	-0,202480	
23,562000	0,66	-0,204070	
23,573000	0,66	-0,196890	
23,584000	0,66	-0,198870	
23,595000	0,66	-0,208650	
23,606000	0,66	-0,207370	
23,617000	0,66	-0,201640	
23,628000	0,66	-0,207010	
23,639000	0,66	-0,207270	
23,650000	0,66	-0,205270	
23,661000	0,66	-0,211460	
23,672000	0,66	-0,206420	
23,683000	0,66	-0,220500	
23,694000	0,66	-0,218360	
23,705000	0,66	-0,213530	
23,716000	0,66	-0,207450	
23,727000	0,66	-0,200700	
23,738000	0,66	-0,195220	
23,749000	0,66	-0,191950	
23,760000	0,66	-0,204030	
23,771000	0,66	-0,209450	
23,782000	0,66	-0,206430	
23,793000	0,66	-0,210360	
23,804000	0,66	-0,197190	
23,815000	0,66	-0,193010	
23,826000	0,66	-0,189230	
23,837000	0,66	-0,182780	
23,848000	0,66	-0,171920	
23,859000	0,66	-0,163620	
23,870000	0,66	-0,175110	
23,881000	0,66	-0,181680	
23,892000	0,66	-0,175000	
23,903000	0,66	-0,157400	
23,914000	0,66	-0,145280	
23,925000	0,66	-0,133840	
23,936000	0,66	-0,122000	
23,947000	0,66	-0,105850	
23,958000	0,66	-0,085780	
23,969000	0,66	-0,072780	
23,980000	0,66	-0,066300	
23,991000	0,66	-0,066340	
24,002000	0,66	-0,068210	
24,013000	0,66	-0,061080	
24,024000	0,66	-0,058380	
24,035000	0,66	-0,065260	
24,046000	0,66	-0,069200	
24,057000	0,66	-0,066800	
24,068000	0,66	-0,064470	
24,079000	0,66	-0,065380	
24,090000	0,66	-0,065760	
24,101000	0,66	-0,067650	
24,112000	0,66	-0,060410	
24,123000	0,66	-0,047090	
24,134000	0,66	-0,032980	
24,145000	0,66	-0,020810	
24,156000	0,66	0,006550	
24,167000	0,66	0,074940	
24,178000	0,66	0,200470	
24,189000	0,66	0,435840	
24,200000	0,66	0,852760	
24,211000	0,66	1,507680	
24,222000	0,66	2,527600	
24,233000	0,66	4,057450	
24,244000	0,66	6,258470	
24,255000	0,66	8,995340	
24,266000	0,66	11,879860	
24,277000	0,66	14,514990	
24,288000	0,66	16,585000	
24,299000	0,66	18,030850	
24,310000	0,66	18,867020	
24,321000	0,66	19,195460	
24,332000	0,66	19,114120	
24,343000	0,66	18,717060	
24,354000	0,66	18,084440	
24,365000	0,66	17,262570	
24,376000	0,66	16,329860	
24,387000	0,66	15,322400	
24,398000	0,66	14,275480	
24,409000	0,66	13,206610	
24,420000	0,66	12,136780	
24,431000	0,66	11,107590	
24,442000	0,66	10,121640	
24,453000	0,66	9,187440	
24,464000	0,66	8,313480	
24,475000	0,66	7,504140	
24,486000	0,66	6,774900	
24,497000	0,66	6,110110	
24,508000	0,66	5,527220	
24,519000	0,66	5,010870	
24,530000	0,66	4,555000	
24,541000	0,66	4,151390	
24,552000	0,66	3,778870	
24,563000	0,66	3,440930	
24,574000	0,66	3,132170	
24,585000	0,66	2,843950	
24,596000	0,66	2,574520	
24,607000	0,66	2,319520	
24,618000	0,66	2,078470	
24,629000	0,66	1,846920	
24,640000	0,66	1,632570	
24,651000	0,66	1,437880	
24,662000	0,66	1,260890	
24,673000	0,66	1,108520	
24,684000	0,66	0,967300	
24,695000	0,66	0,838850	
24,706000	0,66	0,736080	
24,717000	0,66	0,648390	
24,728000	0,66	0,583610	
24,739000	0,66	0,524590	
24,750000	0,66	0,462380	
24,761000	0,66	0,410920	
24,772000	0,66	0,356500	
24,783000	0,66	0,309180	
24,794000	0,66	0,275270	
24,805000	0,66	0,244720	
24,816000	0,66	0,202270	
24,827000	0,66	0,172910	
24,838000	0,66	0,158930	
24,849000	0,66	0,134740	
24,860000	0,66	0,115190	
24,871000	0,66	0,082770	
24,882000	0,66	0,061500	
24,893000	0,66	0,038180	
24,904000	0,66	0,007120	
24,915000	0,66	-0,012530	
24,926000	0,66	-0,021310	
24,937000	0,66	-0,035450	
24,948000	0,66	-0,062540	
24,959000	0,66	-0,073170	
24,970000	0,66	-0,062040	
24,981000	0,66	-0,060650	
24,992000	0,66	-0,074430	
25,003000	0,66	-0,082190	
25,014000	0,66	-0,082800	
25,025000	0,66	-0,086980	
25,036000	0,66	-0,085360	
25,047000	0,66	-0,083980	
25,058000	0,66	-0,087060	
25,069000	0,66	-0,095090	
25,080000	0,66	-0,101210	
25,091000	0,66	-0,111610	
25,102000	0,66	-0,105710	
25,113000	0,66	-0,122350	
25,124000	0,66	-0,121060	
25,135000	0,66	-0,122850	
25,146000	0,66	-0,126110	
25,157000	0,66	-0,134030	
25,168000	0,66	-0,139300	
25,179000	0,66	-0,142760	
25,190000	0,66	-0,150130	
25,201000	0,66	-0,147250	
25,212000	0,66	-0,148400	
25,223000	0,66	-0,147060	
25,234000	0,66	-0,147560	
25,245000	0,66	-0,141110	
25,256000	0,66	-0,143110	
25,267000	0,66	-0,143190	
25,278000	0,66	-0,139840	
25,289000	0,66	-0,138420	
25,300000	0,66	-0,134750	
25,311000	0,66	-0,135180	
25,322000	0,66	-0,126710	
25,333000	0,66	-0,124540	
25,344000	0,66	-0,121520	
25,355000	0,66	-0,121300	
25,366000	0,66	-0,121280	
25,377000	0,66	-0,124160	
25,388000	0,66	-0,124580	
25,399000	0,66	-0,118350	
25,410000	0,66	-0,110840	
25,421000	0,66	-0,106380	
25,432000	0,66	-0,111660	
25,443000	0,66	-0,122520	
25,454000	0,66	-0,123380	
25,465000	0,66	-0,119520	
25,476000	0,66	-0,130290	
25,487000	0,66	-0,141330	
25,498000	0,66	-0,150710	
25,509000	0,66	-0,161160	
25,520000	0,66	-0,163190	
25,531000	0,66	-0,167860	
25,542000	0,66	-0,175640	
25,553000	0,66	-0,176880	
25,564000	0,66	-0,188880	
25,575000	0,66	-0,190000	
25,586000	0,66	-0,189630	
25,597000	0,66	-0,197310	
25,608000	0,66	-0,198890	
25,619000	0,66	-0,205480	
25,630000	0,66	-0,214010	
25,641000	0,66	-0,223440	
25,652000	0,66	-0,227350	
25,663000	0,66	-0,218630	
25,674000	0,66	-0,217270	
25,685000	0,66	-0,212540	
25,696000	0,66	-0,219360	
25,707000	0,66	-0,212970	
25,718000	0,66	-0,201580	
25,729000	0,66	-0,200800	
25,740000	0,66	-0,207940	
25,751000	0,66	-0,203850	
25,762000	0,66	-0,202440	
25,773000	0,66	-0,220510	
25,784000	0,66	-0,225470	
25,795000	0,66	-0,230390	
25,806000	0,66	-0,232570	
25,817000	0,66	-0,229500	
25,828000	0,66	-0,235360	
25,839000	0,66	-0,232660	
25,850000	0,66	-0,228400	
25,861000	0,66	-0,223850	
25,872000	0,66	-0,220480	
25,883000	0,66	-0,219040	
25,894000	0,66	-0,211340	
25,905000	0,66	-0,208760	
25,916000	0,66	-0,201400	
25,927000	0,66	-0,199290	
25,938000	0,66	-0,207500	
25,949000	0,66	-0,218470	
25,960000	0,66	-0,223500	
25,971000	0,66	-0,224330	
25,982000	0,66	-0,227780	
25,993000	0,66	-0,232400	
26,004000	0,66	-0,246410	
26,015000	0,66	-0,250560	
26,026000	0,66	-0,242260	
26,037000	0,66	-0,240420	
26,048000	0,66	-0,245330	
26,059000	0,66	-0,240370	
26,070000	0,66	-0,236550	
26,081000	0,66	-0,231480	
26,092000	0,66	-0,221110	
26,103000	0,66	-0,215670	
26,114000	0,66	-0,216690	
26,125000	0,66	-0,226380	
26,136000	0,66	-0,237670	
26,147000	0,66	-0,248890	
26,158000	0,66	-0,249740	
26,169000	0,66	-0,237060	
26,180000	0,66	-0,229510	
26,191000	0,66	-0,221840	
26,202000	0,66	-0,224960	
26,213000	0,66	-0,219320	
26,224000	0,66	-0,213690	
26,235000	0,66	-0,212510	
26,246000	0,66	-0,211530	
26,257000	0,66	-0,217440	
26,268000	0,66	-0,216210	
26,279000	0,66	-0,212920	
26,290000	0,66	-0,216710	
26,301000	0,66	-0,230890	
26,312000	0,66	-0,240530	
26,323000	0,66	-0,235280	
26,334000	0,66	-0,241640	
26,345000	0,66	-0,232210	
26,356000	0,66	-0,223730	
26,367000	0,66	-0,228070	
26,378000	0,66	-0,220400	
26,389000	0,66	-0,224260	
26,400000	0,66	-0,219730	
26,411000	0,66	-0,220170	
26,422000	0,66	-0,231760	
26,433000	0,66	-0,230750	
26,444000	0,66	-0,230910	
26,455000	0,66	-0,232850	
26,466000	0,66	-0,233830	
26,477000	0,66	-0,239920	
26,488000	0,66	-0,226370	
26,499000	0,66	-0,215590	
26,510000	0,66	-0,219970	
26,521000	0,66	-0,233810	
26,532000	0,66	-0,237000	
26,543000	0,66	-0,243080	
26,554000	0,66	-0,248450	
26,565000	0,66	-0,254640	
26,576000	0,66	-0,243780	
26,587000	0,66	-0,225570	
26,598000	0,66	-0,209940	
26,609000	0,66	-0,203730	
26,620000	0,66	-0,206240	
26,631000	0,66	-0,208970	
26,642000	0,66	-0,209140	
26,653000	0,66	-0,219360	
26,664000	0,66	-0,238320	
26,675000	0,66	-0,236030	
26,686000	0,66	-0,231910	
26,697000	0,66	-0,222160	
26,708000	0,66	-0,229320	
26,719000	0,66	-0,240710	
26,730000	0,66	-0,228780	
26,741000	0,66	-0,230140	
26,752000	0,66	-0,241700	
26,763000	0,66	-0,247080	
26,774000	0,66	-0,245190	
26,785000	0,66	-0,235210	
26,796000	0,66	-0,231050	
26,807000	0,66	-0,237770	
26,818000	0,66	-0,242820	
26,829000	0,66	-0,247960	
26,840000	0,66	-0,249730	
26,851000	0,66	-0,246630	
26,862000	0,66	-0,248520	
26,873000	0,66	-0,248040	
26,884000	0,66	-0,251700	
26,895000	0,66	-0,257620	
26,906000	0,66	-0,259510	
26,917000	0,66	-0,249060	
26,928000	0,66	-0,240540	
26,939000	0,66	-0,237160	
26,950000	0,66	-0,236610	
26,961000	0,66	-0,240340	
26,972000	0,66	-0,233650	
26,983000	0,66	-0,231660	
26,994000	0,66	-0,229360	
27,005000	0,66	-0,226880	
27,016000	0,66	-0,233720	
27,027000	0,66	-0,248370	
27,038000	0,66	-0,261500	
27,049000	0,66	-0,260560	
27,060000	0,66	-0,253650	
27,071000	0,66	-0,246740	
27,082000	0,66	-0,242650	
27,093000	0,66	-0,248720	
27,104000	0,66	-0,255330	
27,115000	0,66	-0,256370	
27,126000	0,66	-0,256610	
27,137000	0,66	-0,250820	
27,148000	0,66	-0,239040	
27,159000	0,66	-0,235010	
27,170000	0,66	-0,239370	
27,181000	0,66	-0,242540	
27,192000	0,66	-0,246890	
27,203000	0,66	-0,252990	
27,214000	0,66	-0,261310	
27,225000	0,66	-0,254490	
27,236000	0,66	-0,240860	
27,247000	0,66	-0,256700	
27,258000	0,66	-0,263510	
27,269000	0,66	-0,263120	
27,280000	0,66	-0,258950	
27,291000	0,66	-0,256720	
27,302000	0,66	-0,253300	
27,313000	0,66	-0,244820	
27,324000	0,66	-0,242910	
27,335000	0,66	-0,236930	
27,346000	0,66	-0,243760	
27,357000	0,66	-0,248420	
27,368000	0,66	-0,252320	
27,379000	0,66	-0,253690	
27,390000	0,66	-0,253840	
27,401000	0,66	-0,242420	
27,412000	0,66	-0,238660	
27,423000	0,66	-0,239200	
27,434000	0,66	-0,238520	
27,445000	0,66	-0,238690	
27,456000	0,66	-0,236380	
27,467000	0,66	-0,241010	
27,478000	0,66	-0,248520	
27,489000	0,66	-0,246710	
27,500000	0,66	-0,244940	
27,511000	0,66	-0,247200	
27,522000	0,66	-0,244770	
27,533000	0,66	-0,238360	
27,544000	0,66	-0,236040	
27,555000	0,66	-0,237320	
27,566000	0,66	-0,237120	
27,577000	0,66	-0,237760	
27,588000	0,66	-0,238780	
27,599000	0,66	-0,241530	
27,610000	0,66	-0,241860	
27,621000	0,66	-0,245220	
27,632000	0,66	-0,241320	
27,643000	0,66	-0,238000	
27,654000	0,66	-0,238960	
27,665000	0,66	-0,242070	
27,676000	0,66	-0,239510	
27,687000	0,66	-0,234210	
27,698000	0,66	-0,234820	
27,709000	0,66	-0,228980	
27,720000	0,66	-0,227210	
27,731000	0,66	-0,234550	
27,742000	0,66	-0,249440	
27,753000	0,66	-0,263010	
27,764000	0,66	-0,247760	
27,775000	0,66	-0,249360	
27,786000	0,66	-0,242080	
27,797000	0,66	-0,236190	
27,808000	0,66	-0,234690	
27,819000	0,66	-0,236160	
27,830000	0,66	-0,240860	
27,841000	0,66	-0,251030	
27,852000	0,66	-0,248590	
27,863000	0,66	-0,247230	
27,874000	0,66	-0,249350	
27,885000	0,66	-0,249020	
27,896000	0,66	-0,257020	
27,907000	0,66	-0,259970	
27,918000	0,66	-0,259230	
27,929000	0,66	-0,255130	
27,940000	0,66	-0,242570	
27,951000	0,66	-0,244880	
27,962000	0,66	-0,259240	
27,973000	0,66	-0,258450	
27,984000	0,66	-0,259230	
27,995000	0,66	-0,255810	
28,006000	0,66	-0,248470	
28,017000	0,66	-0,232840	
28,028000	0,66	-0,231320	
28,039000	0,66	-0,226770	
28,050000	0,66	-0,231880	
28,061000	0,66	-0,238080	
28,072000	0,66	-0,229450	
28,083000	0,66	-0,228270	
28,094000	0,66	-0,231500	
28,105000	0,66	-0,231050	
28,116000	0,66	-0,244560	
28,127000	0,66	-0,247090	
28,138000	0,66	-0,236320	
28,149000	0,66	-0,237760	
28,160000	0,66	-0,248530	
28,171000	0,66	-0,253880	
28,182000	0,66	-0,253200	
28,193000	0,66	-0,246850	
28,204000	0,66	-0,242560	
28,215000	0,66	-0,246370	
28,226000	0,66	-0,248420	
28,237000	0,66	-0,248280	
28,248000	0,66	-0,247930	
28,259000	0,66	-0,252750	
28,270000	0,66	-0,265100	
28,281000	0,66	-0,265050	
28,292000	0,66	-0,259230	
28,303000	0,66	-0,267650	
28,314000	0,66	-0,277680	
28,325000	0,66	-0,274990	
28,336000	0,66	-0,270380	
28,347000	0,66	-0,261620	
28,358000	0,66	-0,253520	
28,369000	0,66	-0,245230	
28,380000	0,66	-0,249740	
28,391000	0,66	-0,250110	
28,402000	0,66	-0,251410	
28,413000	0,66	-0,242930	
28,424000	0,66	-0,255360	
28,435000	0,66	-0,259490	
28,446000	0,66	-0,255040	
28,457000	0,66	-0,258210	
28,468000	0,66	-0,258650	
28,479000	0,66	-0,257870	
28,490000	0,66	-0,255740	
28,501000	0,66	-0,252780	
28,512000	0,66	-0,245770	
28,523000	0,66	-0,249980	
28,534000	0,66	-0,242480	
28,545000	0,66	-0,247430	
28,556000	0,66	-0,247740	
28,567000	0,66	-0,245800	
28,578000	0,66	-0,244240	
28,589000	0,66	-0,248510	
28,600000	0,66	-0,255360	
28,611000	0,66	-0,254920	
28,622000	0,66	-0,256590	
28,633000	0,66	-0,257730	
28,644000	0,66	-0,255400	
28,655000	0,66	-0,259810	
28,666000	0,66	-0,255380	
28,677000	0,66	-0,249540	
28,688000	0,66	-0,238980	
28,699000	0,66	-0,234590	
28,710000	0,66	-0,229520	
28,721000	0,66	-0,223560	
28,732000	0,66	-0,215830	
28,743000	0,66	-0,217880	
28,754000	0,66	-0,221390	
28,765000	0,66	-0,230230	
28,776000	0,66	-0,242220	
28,787000	0,66	-0,243230	
28,798000	0,66	-0,243350	
28,809000	0,66	-0,243260	
28,820000	0,66	-0,247370	
28,831000	0,66	-0,244390	
28,842000	0,66	-0,238630	
28,853000	0,66	-0,241580	
28,864000	0,66	-0,245660	
28,875000	0,66	-0,258680	
28,886000	0,66	-0,264880	
28,897000	0,66	-0,256840	
28,908000	0,66	-0,255790	
28,919000	0,66	-0,259580	
28,930000	0,66	-0,264940	
28,941000	0,66	-0,268710	
28,952000	0,66	-0,264460	
28,963000	0,66	-0,254010	
28,974000	0,66	-0,251620	
28,985000	0,66	-0,258290	
28,996000	0,66	-0,269600	
29,007000	0,66	-0,275080	
29,018000	0,66	-0,271080	
29,029000	0,66	-0,280760	
29,040000	0,66	-0,285600	
29,051000	0,66	-0,285460	
29,062000	0,66	-0,276460	
29,073000	0,66	-0,270460	
29,084000	0,66	-0,269360	
29,095000	0,66	-0,265930	
29,106000	0,66	-0,263520	
29,117000	0,66	-0,269180	
29,128000	0,66	-0,264840	
29,139000	0,66	-0,267670	
29,150000	0,66	-0,266580	
29,161000	0,66	-0,263120	
29,172000	0,66	-0,261490	
29,183000	0,66	-0,253600	
29,194000	0,66	-0,256220	
29,205000	0,66	-0,261710	
29,216000	0,66	-0,264680	
29,227000	0,66	-0,253950	
29,238000	0,66	-0,244760	
29,249000	0,66	-0,237270	
29,260000	0,66	-0,239220	
29,271000	0,66	-0,243040	
29,282000	0,66	-0,238820	
29,293000	0,66	-0,250350	
29,304000	0,66	-0,259080	
29,315000	0,66	-0,263030	
29,326000	0,66	-0,258760	
29,337000	0,66	-0,258040	
29,348000	0,66	-0,263950	
29,359000	0,66	-0,268380	
29,370000	0,66	-0,259770	
29,381000	0,66	-0,257490	
29,392000	0,66	-0,253080	
29,403000	0,66	-0,254360	
29,414000	0,66	-0,265540	
29,425000	0,66	-0,268840	
29,436000	0,66	-0,267930	
29,447000	0,66	-0,263380	
29,458000	0,66	-0,266610	
29,469000	0,66	-0,265420	
29,480000	0,66	-0,264450	
29,491000	0,66	-0,269260	
29,502000	0,66	-0,281200	
29,513000	0,66	-0,291270	
29,524000	0,66	-0,286860	
29,535000	0,66	-0,287750	
29,546000	0,66	-0,293690	
29,557000	0,66	-0,299270	
29,568000	0,66	-0,298090	
29,579000	0,66	-0,300120	
29,590000	0,66	-0,297010	
29,601000	0,66	-0,279790	
29,612000	0,66	-0,273950	
29,623000	0,66	-0,276130	
29,634000	0,66	-0,271570	
29,645000	0,66	-0,273870	
29,656000	0,66	-0,280960	
29,667000	0,66	-0,285180	
29,678000	0,66	-0,294060	
29,689000	0,66	-0,292610	
29,700000	0,66	-0,288970	
29,711000	0,66	-0,283310	
29,722000	0,66	-0,281130	
29,733000	0,66	-0,275220	
29,744000	0,66	-0,277030	
29,755000	0,66	-0,275090	
29,766000	0,66	-0,263430	
29,777000	0,66	-0,263400	
29,788000	0,66	-0,265060	
29,799000	0,66	-0,277080	
29,810000	0,66	-0,273360	
29,821000	0,66	-0,264630	
29,832000	0,66	-0,264950	
29,843000	0,66	-0,261830	
29,854000	0,66	-0,257540	
29,865000	0,66	-0,264480	
29,876000	0,66	-0,268270	
29,887000	0,66	-0,275260	
29,898000	0,66	-0,270170	
29,909000	0,66	-0,265420	
29,920000	0,66	-0,270190	
29,931000	0,66	-0,274460	
29,942000	0,66	-0,277980	
29,953000	0,66	-0,284110	
29,964000	0,66	-0,290930	
29,975000	0,66	-0,291620	
29,986000	0,66	-0,284360	
29,997000	0,66	-0,277850	
30,008000	0,66	-0,266810	
30,019000	0,66	-0,264250	
30,030000	0,66	-0,268040	
30,041000	0,66	-0,261420	
30,052000	0,66	-0,269730	
30,063000	0,66	-0,275920	
30,074000	0,66	-0,273150	
30,085000	0,66	-0,273200	
30,096000	0,66	-0,279750	
30,107000	0,66	-0,280000	
30,118000	0,66	-0,280480	
30,129000	0,66	-0,281930	
30,140000	0,66	-0,276260	
30,151000	0,66	-0,281600	
30,162000	0,66	-0,284230	
30,173000	0,66	-0,273090	
30,184000	0,66	-0,272860	
30,195000	0,66	-0,271890	
30,206000	0,66	-0,272630	
30,217000	0,66	-0,287920	
30,228000	0,66	-0,291030	
30,239000	0,66	-0,279620	
30,250000	0,66	-0,273890	
30,261000	0,66	-0,275300	
30,272000	0,66	-0,272300	
30,283000	0,66	-0,271150	
30,294000	0,66	-0,272480	
30,305000	0,66	-0,271980	
30,316000	0,66	-0,276700	
30,327000	0,66	-0,277850	
30,338000	0,66	-0,272630	
30,349000	0,66	-0,267070	
30,360000	0,66	-0,267100	
30,371000	0,66	-0,266270	
30,382000	0,66	-0,266600	
30,393000	0,66	-0,268070	
30,404000	0,66	-0,257060	
30,415000	0,66	-0,255790	
30,426000	0,66	-0,260780	
30,437000	0,66	-0,265360	
30,448000	0,66	-0,271870	
30,459000	0,66	-0,279080	
30,470000	0,66	-0,290190	
30,481000	0,66	-0,297160	
30,492000	0,66	-0,303340	
30,503000	0,66	-0,298850	
30,514000	0,66	-0,289180	
30,525000	0,66	-0,298310	
30,536000	0,66	-0,300670	
30,547000	0,66	-0,303770	
30,558000	0,66	-0,284960	
30,569000	0,66	-0,286410	
30,580000	0,66	-0,286430	
30,591000	0,66	-0,288640	
30,602000	0,66	-0,293310	
30,613000	0,66	-0,291320	
30,624000	0,66	-0,285490	
30,635000	0,66	-0,284680	
30,646000	0,66	-0,273500	
30,657000	0,66	-0,275560	
30,668000	0,66	-0,269440	
30,679000	0,66	-0,268940	
30,690000	0,66	-0,266140	
30,701000	0,66	-0,254690	
30,712000	0,66	-0,260730	
30,723000	0,66	-0,275400	
30,734000	0,66	-0,285970	
30,745000	0,66	-0,290240	
30,756000	0,66	-0,285530	
30,767000	0,66	-0,285930	
30,778000	0,66	-0,284750	
30,789000	0,66	-0,281410	
30,800000	0,66	-0,271830	
30,811000	0,66	-0,266870	
30,822000	0,66	-0,266960	
30,833000	0,66	-0,279780	
30,844000	0,66	-0,287740	
30,855000	0,66	-0,283880	
30,866000	0,66	-0,285580	
30,877000	0,66	-0,291290	
30,888000	0,66	-0,283210	
30,899000	0,66	-0,286330	
30,910000	0,66	-0,285680	
30,921000	0,66	-0,283080	
30,932000	0,66	-0,285700	
30,943000	0,66	-0,282250	
30,954000	0,66	-0,274280	
30,965000	0,66	-0,270080	
30,976000	0,66	-0,273630	
30,987000	0,66	-0,272930	
30,998000	0,66	-0,272140	
31,009000	0,66	-0,288010	
31,020000	0,66	-0,303650	
31,031000	0,66	-0,298840	
31,042000	0,66	-0,284600	
31,053000	0,66	-0,273990	
31,064000	0,66	-0,269110	
31,075000	0,66	-0,281260	
31,086000	0,66	-0,293830	
31,097000	0,66	-0,287760	
31,108000	0,66	-0,282330	
31,119000	0,66	-0,273450	
31,130000	0,66	-0,269790	
31,141000	0,66	-0,275810	
31,152000	0,66	-0,276620	
31,163000	0,66	-0,279090	
31,174000	0,66	-0,282810	
31,185000	0,66	-0,268900	
31,196000	0,66	-0,269570	
31,207000	0,66	-0,273000	
31,218000	0,66	-0,270540	
31,229000	0,66	-0,273440	
31,240000	0,66	-0,278890	
31,251000	0,66	-0,276400	
31,262000	0,66	-0,287840	
31,273000	0,66	-0,286790	
31,284000	0,66	-0,287370	
31,295000	0,66	-0,284860	
31,306000	0,66	-0,280020	
31,317000	0,66	-0,269830	
31,328000	0,66	-0,269880	
31,339000	0,66	-0,282050	
31,350000	0,66	-0,283940	
31,361000	0,66	-0,283320	
31,372000	0,66	-0,272810	
31,383000	0,66	-0,271950	
31,394000	0,66	-0,277360	
31,405000	0,66	-0,281530	
31,416000	0,66	-0,277860	
31,427000	0,66	-0,275800	
31,438000	0,66	-0,264940	
31,449000	0,66	-0,265600	
31,460000	0,66	-0,279360	
31,471000	0,66	-0,288730	
31,482000	0,66	-0,293790	
31,493000	0,66	-0,297780	
31,504000	0,66	-0,301300	
31,515000	0,66	-0,300590	
31,526000	0,66	-0,288350	
31,537000	0,66	-0,289250	
31,548000	0,66	-0,298790	
31,559000	0,66	-0,293680	
31,570000	0,66	-0,288650	
31,581000	0,66	-0,292540	
31,592000	0,66	-0,288430	
31,603000	0,66	-0,279390	
31,614000	0,66	-0,282100	
31,625000	0,66	-0,289780	
31,636000	0,66	-0,296790	
31,647000	0,66	-0,305580	
31,658000	0,66	-0,307110	
31,669000	0,66	-0,302220	
31,680000	0,66	-0,303120	
31,691000	0,66	-0,308360	
31,702000	0,66	-0,300960	
31,713000	0,66	-0,293500	
31,724000	0,66	-0,292660	
31,735000	0,66	-0,279840	
31,746000	0,66	-0,275700	
31,757000	0,66	-0,273680	
31,768000	0,66	-0,264040	
31,779000	0,66	-0,264000	
31,790000	0,66	-0,270220	
31,801000	0,66	-0,270900	
31,812000	0,66	-0,278930	
31,823000	0,66	-0,291510	
31,834000	0,66	-0,298940	
31,845000	0,66	-0,297800	
31,856000	0,66	-0,302430	
31,867000	0,66	-0,307630	
31,878000	0,66	-0,299710	
31,889000	0,66	-0,303410	
31,900000	0,66	-0,306240	
31,911000	0,66	-0,303040	
31,922000	0,66	-0,296560	
31,933000	0,66	-0,290520	
31,944000	0,66	-0,291580	
31,955000	0,66	-0,297540	
31,966000	0,66	-0,298860	
31,977000	0,66	-0,300510	
31,988000	0,66	-0,305920	
31,999000	0,66	-0,311330	
32,010000	0,66	-0,300300	
32,021000	0,66	-0,290890	
32,032000	0,66	-0,278290	
32,043000	0,66	-0,275490	
32,054000	0,66	-0,285690	
32,065000	0,66	-0,298530	
32,076000	0,66	-0,304600	
32,087000	0,66	-0,300640	
32,098000	0,66	-0,290550	
32,109000	0,66	-0,289990	
32,120000	0,66	-0,301930	
32,131000	0,66	-0,302850	
32,142000	0,66	-0,307420	
32,153000	0,66	-0,299720	
32,164000	0,66	-0,292630	
32,175000	0,66	-0,293440	
32,186000	0,66	-0,290870	
32,197000	0,66	-0,291080	
32,208000	0,66	-0,290530	
32,219000	0,66	-0,301940	
32,230000	0,66	-0,304660	
32,241000	0,66	-0,309650	
32,252000	0,66	-0,311350	
32,263000	0,66	-0,300970	
32,274000	0,66	-0,291470	
32,285000	0,66	-0,294920	
32,296000	0,66	-0,294820	
32,307000	0,66	-0,291600	
32,318000	0,66	-0,291260	
32,329000	0,66	-0,295310	
32,340000	0,66	-0,301750	
32,351000	0,66	-0,305340	
32,362000	0,66	-0,304490	
32,373000	0,66	-0,307940	
32,384000	0,66	-0,308770	
32,395000	0,66	-0,303480	
32,406000	0,66	-0,306490	
32,417000	0,66	-0,310390	
32,428000	0,66	-0,305390	
32,439000	0,66	-0,291380	
32,450000	0,66	-0,286340	
32,461000	0,66	-0,290390	
32,472000	0,66	-0,282150	
32,483000	0,66	-0,279840	
32,494000	0,66	-0,278130	
32,505000	0,66	-0,281640	
32,516000	0,66	-0,288810	
32,527000	0,66	-0,290080	
32,538000	0,66	-0,297280	
32,549000	0,66	-0,307380	
32,560000	0,66	-0,315570	
32,571000	0,66	-0,312790	
32,582000	0,66	-0,303660	
32,593000	0,66	-0,301920	
32,604000	0,66	-0,303800	
32,615000	0,66	-0,304590	
32,626000	0,66	-0,294790	
32,637000	0,66	-0,296320	
32,648000	0,66	-0,296510	
32,659000	0,66	-0,296010	
32,670000	0,66	-0,296290	
32,681000	0,66	-0,298400	
32,692000	0,66	-0,293870	
32,703000	0,66	-0,300180	
32,714000	0,66	-0,302260	
32,725000	0,66	-0,307890	
32,736000	0,66	-0,303540	
32,747000	0,66	-0,301160	
32,758000	0,66	-0,302880	
32,769000	0,66	-0,313150	
32,780000	0,66	-0,310980	
32,791000	0,66	-0,309020	
32,802000	0,66	-0,305570	
32,813000	0,66	-0,299550	
32,824000	0,66	-0,284450	
32,835000	0,66	-0,288570	
32,846000	0,66	-0,294550	
32,857000	0,66	-0,294380	
32,868000	0,66	-0,305500	
32,879000	0,66	-0,308810	
32,890000	0,66	-0,300790	
32,901000	0,66	-0,304900	
32,912000	0,66	-0,304440	
32,923000	0,66	-0,301900	
32,934000	0,66	-0,311750	
32,945000	0,66	-0,316780	
32,956000	0,66	-0,314230	
32,967000	0,66	-0,308870	
32,978000	0,66	-0,310200	
32,989000	0,66	-0,316930	
33,000000	0,66	-0,317250	
33,011000	0,66	-0,312510	
33,022000	0,66	-0,306320	
33,033000	0,66	-0,308600	
33,044000	0,66	-0,303660	
33,055000	0,66	-0,301400	
33,066000	0,66	-0,316110	
33,077000	0,66	-0,323960	
33,088000	0,66	-0,321620	
33,099000	0,66	-0,314640	
33,110000	0,66	-0,311740	
33,121000	0,66	-0,320710	
33,132000	0,66	-0,323880	
33,143000	0,66	-0,315060	
33,154000	0,66	-0,318840	
33,165000	0,66	-0,335540	
33,176000	0,66	-0,337660	
33,187000	0,66	-0,331680	
33,198000	0,66	-0,334370	
33,209000	0,66	-0,331840	
33,220000	0,66	-0,334260	
33,231000	0,66	-0,324340	
33,242000	0,66	-0,319990	
33,253000	0,66	-0,320070	
33,264000	0,66	-0,326520	
33,275000	0,66	-0,323150	
33,286000	0,66	-0,307520	
33,297000	0,66	-0,301420	
33,308000	0,66	-0,305410	
33,319000	0,66	-0,313920	
33,330000	0,66	-0,305860	
33,341000	0,66	-0,308100	
33,352000	0,66	-0,301900	
33,363000	0,66	-0,304580	
33,374000	0,66	-0,311270	
33,385000	0,66	-0,300480	
33,396000	0,66	-0,298500	
33,407000	0,66	-0,291220	
33,418000	0,66	-0,288540	
33,429000	0,66	-0,299150	
33,440000	0,66	-0,299930	
33,451000	0,66	-0,299070	
33,462000	0,66	-0,317470	
33,473000	0,66	-0,323100	
33,484000	0,66	-0,317810	
33,495000	0,66	-0,319030	
33,506000	0,66	-0,315030	
33,517000	0,66	-0,316710	
33,528000	0,66	-0,317400	
33,539000	0,66	-0,318530	
33,550000	0,66	-0,319420	
33,561000	0,66	-0,322730	
33,572000	0,66	-0,328940	
33,583000	0,66	-0,325870	
33,594000	0,66	-0,320920	
33,605000	0,66	-0,323730	
33,616000	0,66	-0,318960	
33,627000	0,66	-0,322210	
33,638000	0,66	-0,325850	
33,649000	0,66	-0,316640	
33,660000	0,66	-0,318860	
33,671000	0,66	-0,323750	
33,682000	0,66	-0,316930	
33,693000	0,66	-0,318330	
33,704000	0,66	-0,315570	
33,715000	0,66	-0,311710	
33,726000	0,66	-0,315160	
33,737000	0,66	-0,313180	
33,748000	0,66	-0,302770	
33,759000	0,66	-0,296910	
33,770000	0,66	-0,306370	
33,781000	0,66	-0,313830	
33,792000	0,66	-0,312100	
33,803000	0,66	-0,313150	
33,814000	0,66	-0,314780	
33,825000	0,66	-0,316850	
33,836000	0,66	-0,319390	
33,847000	0,66	-0,322520	
33,858000	0,66	-0,318240	
33,869000	0,66	-0,311510	
33,880000	0,66	-0,318140	
33,891000	0,66	-0,334780	
33,902000	0,66	-0,342370	
33,913000	0,66	-0,337190	
33,924000	0,66	-0,326470	
33,935000	0,66	-0,317700	
33,946000	0,66	-0,312070	
33,957000	0,66	-0,320560	
33,968000	0,66	-0,332100	
33,979000	0,66	-0,336420	
33,990000	0,66	-0,334560	
34,001000	0,66	-0,334440	
34,012000	0,66	-0,337150	
34,023000	0,66	-0,342810	
34,034000	0,66	-0,334760	
34,045000	0,66	-0,335050	
34,056000	0,66	-0,344710	
34,067000	0,66	-0,341390	
34,078000	0,66	-0,329370	
34,089000	0,66	-0,325900	
34,100000	0,66	-0,323930	
34,111000	0,66	-0,328800	
34,122000	0,66	-0,343660	
34,133000	0,66	-0,348100	
34,144000	0,66	-0,345360	
34,155000	0,66	-0,346170	
34,166000	0,66	-0,343710	
34,177000	0,66	-0,336260	
34,188000	0,66	-0,328450	
34,199000	0,66	-0,327500	
34,210000	0,66	-0,334410	
34,221000	0,66	-0,339130	
34,232000	0,66	-0,327890	
34,243000	0,66	-0,325780	
34,254000	0,66	-0,327680	
34,265000	0,66	-0,327090	
34,276000	0,66	-0,324300	
34,287000	0,66	-0,319020	
34,298000	0,66	-0,316340	
34,309000	0,66	-0,326610	
34,320000	0,66	-0,333540	
34,331000	0,66	-0,337320	
34,342000	0,66	-0,340140	
34,353000	0,66	-0,333290	
34,364000	0,66	-0,316470	
34,375000	0,66	-0,314920	
34,386000	0,66	-0,334850	
34,397000	0,66	-0,350970	
34,408000	0,66	-0,343090	
34,419000	0,66	-0,327010	
34,430000	0,66	-0,320220	
34,441000	0,66	-0,320740	
34,452000	0,66	-0,322040	
34,463000	0,66	-0,328950	
34,474000	0,66	-0,337650	
34,485000	0,66	-0,335420	
34,496000	0,66	-0,327590	
34,507000	0,66	-0,321210	
34,518000	0,66	-0,319160	
34,529000	0,66	-0,320250	
34,540000	0,66	-0,326790	
34,551000	0,66	-0,335540	
34,562000	0,66	-0,333940	
34,573000	0,66	-0,333580	
34,584000	0,66	-0,333500	
34,595000	0,66	-0,334480	
34,606000	0,66	-0,331840	
34,617000	0,66	-0,326810	
34,628000	0,66	-0,326630	
34,639000	0,66	-0,334120	
34,650000	0,66	-0,337270	
34,661000	0,66	-0,335600	
34,672000	0,66	-0,335000	
34,683000	0,66	-0,338410	
34,694000	0,66	-0,337530	
34,705000	0,66	-0,336020	
34,716000	0,66	-0,319670	
34,727000	0,66	-0,313280	
34,738000	0,66	-0,320810	
34,749000	0,66	-0,322160	
34,760000	0,66	-0,321510	
34,771000	0,66	-0,328620	
34,782000	0,66	-0,332480	
34,793000	0,66	-0,331600	
34,804000	0,66	-0,321700	
34,815000	0,66	-0,314450	
34,826000	0,66	-0,314610	
34,837000	0,66	-0,317810	
34,848000	0,66	-0,317610	
34,859000	0,66	-0,324640	
34,870000	0,66	-0,329340	
34,881000	0,66	-0,322630	
34,892000	0,66	-0,331200	
34,903000	0,66	-0,340800	
34,914000	0,66	-0,329510	
34,925000	0,66	-0,325120	
34,936000	0,66	-0,324430	
34,947000	0,66	-0,325990	
34,958000	0,66	-0,330360	
34,969000	0,66	-0,325480	
34,980000	0,66	-0,314270	
34,991000	0,66	-0,317200	
35,002000	0,66	-0,321560	
35,013000	0,66	-0,316730	
35,024000	0,66	-0,310540	
35,035000	0,66	-0,318220	
35,046000	0,66	-0,320790	
35,057000	0,66	-0,316810	
35,068000	0,66	-0,321400	
35,079000	0,66	-0,321890	
35,090000	0,66	-0,322420	
35,101000	0,66	-0,326290	
35,112000	0,66	-0,328910	
35,123000	0,66	-0,335190	
35,134000	0,66	-0,337870	
35,145000	0,66	-0,331020	
35,156000	0,66	-0,328740	
35,167000	0,66	-0,333640	
35,178000	0,66	-0,333950	
35,189000	0,66	-0,331340	
35,200000	0,66	-0,324690	
35,211000	0,66	-0,315500	
35,222000	0,66	-0,315940	
35,233000	0,66	-0,314720	
35,244000	0,66	-0,306580	
35,255000	0,66	-0,302820	
35,266000	0,66	-0,301770	
35,277000	0,66	-0,300370	
35,288000	0,66	-0,305470	
35,299000	0,66	-0,316590	
35,310000	0,66	-0,320730	
35,321000	0,66	-0,324740	
35,332000	0,66	-0,319540	
35,343000	0,66	-0,323330	
35,354000	0,66	-0,332730	
35,365000	0,66	-0,321230	
35,376000	0,66	-0,317160	
35,387000	0,66	-0,320140	
35,398000	0,66	-0,330870	
35,409000	0,66	-0,337810	
35,420000	0,66	-0,326690	
35,431000	0,66	-0,323780	
35,442000	0,66	-0,322350	
35,453000	0,66	-0,316390	
35,464000	0,66	-0,317890	
35,475000	0,66	-0,324490	
35,486000	0,66	-0,335560	
35,497000	0,66	-0,342980	
35,508000	0,66	-0,330530	
35,519000	0,66	-0,333930	
35,530000	0,66	-0,332040	
35,541000	0,66	-0,323440	
35,552000	0,66	-0,319580	
35,563000	0,66	-0,326130	
35,574000	0,66	-0,321460	
35,585000	0,66	-0,322700	
35,596000	0,66	-0,326040	
35,607000	0,66	-0,331410	
35,618000	0,66	-0,344260	
35,629000	0,66	-0,343120	
35,640000	0,66	-0,335910	
35,651000	0,66	-0,329660	
35,662000	0,66	-0,325930	
35,673000	0,66	-0,326230	
35,684000	0,66	-0,330660	
35,695000	0,66	-0,341740	
35,706000	0,66	-0,349160	
35,717000	0,66	-0,341040	
35,728000	0,66	-0,339330	
35,739000	0,66	-0,335990	
35,750000	0,66	-0,326960	
35,761000	0,66	-0,333620	
35,772000	0,66	-0,336780	
35,783000	0,66	-0,332350	
35,794000	0,66	-0,333190	
35,805000	0,66	-0,332500	
35,816000	0,66	-0,333430	
35,827000	0,66	-0,338590	
35,838000	0,66	-0,338510	
35,849000	0,66	-0,336030	
35,860000	0,66	-0,337530	
35,871000	0,66	-0,341990	
35,882000	0,66	-0,338610	
35,893000	0,66	-0,329910	
35,904000	0,66	-0,333060	
35,915000	0,66	-0,336550	
35,926000	0,66	-0,330480	
35,937000	0,66	-0,329210	
35,948000	0,66	-0,333710	
35,959000	0,66	-0,332820	
35,970000	0,66	-0,339570	
35,981000	0,66	-0,340460	
35,992000	0,66	-0,329010	
36,003000	0,66	-0,332190	
36,014000	0,66	-0,336950	
36,025000	0,66	-0,337300	
36,036000	0,66	-0,335870	
36,047000	0,66	-0,332710	
36,058000	0,66	-0,332030	
36,069000	0,66	-0,325900	
36,080000	0,66	-0,326500	
36,091000	0,66	-0,330180	
36,102000	0,66	-0,323770	
36,113000	0,66	-0,324600	
36,124000	0,66	-0,324580	
36,135000	0,66	-0,322990	
36,146000	0,66	-0,328410	
36,157000	0,66	-0,337600	
36,168000	0,66	-0,333120	
36,179000	0,66	-0,329820	
36,190000	0,66	-0,328870	
36,201000	0,66	-0,328970	
36,212000	0,66	-0,326800	
36,223000	0,66	-0,321130	
36,234000	0,66	-0,336940	
36,245000	0,66	-0,338420	
36,256000	0,66	-0,332520	
36,267000	0,66	-0,332400	
36,278000	0,66	-0,328640	
36,289000	0,66	-0,328480	
36,300000	0,66	-0,326370	
36,311000	0,66	-0,338160	
36,322000	0,66	-0,343870	
36,333000	0,66	-0,347430	
36,344000	0,66	-0,348690	
36,355000	0,66	-0,342410	
36,366000	0,66	-0,341380	
36,377000	0,66	-0,338310	
36,388000	0,66	-0,337850	
36,399000	0,66	-0,338970	
36,410000	0,66	-0,330620	
36,421000	0,66	-0,325630	
36,432000	0,66	-0,331830	
36,443000	0,66	-0,334380	
36,454000	0,66	-0,331240	
36,465000	0,66	-0,335390	
36,476000	0,66	-0,336110	
36,487000	0,66	-0,336890	
36,498000	0,66	-0,340750	
36,509000	0,66	-0,338120	
36,520000	0,66	-0,338080	
36,531000	0,66	-0,341300	
36,542000	0,66	-0,346010	
36,553000	0,66	-0,347050	
36,564000	0,66	-0,348120	
36,575000	0,66	-0,352640	
36,586000	0,66	-0,349160	
36,597000	0,66	-0,350370	
36,608000	0,66	-0,355560	
36,619000	0,66	-0,361590	
36,630000	0,66	-0,370470	
36,641000	0,66	-0,376450	
36,652000	0,66	-0,367540	
36,663000	0,66	-0,362060	
36,674000	0,66	-0,366510	
36,685000	0,66	-0,368590	
36,696000	0,66	-0,366060	
36,707000	0,66	-0,372140	
36,718000	0,66	-0,375370	
36,729000	0,66	-0,375400	
36,740000	0,66	-0,385240	
36,751000	0,66	-0,383250	
36,762000	0,66	-0,385930	
36,773000	0,66	-0,383580	
36,784000	0,66	-0,374380	
36,795000	0,66	-0,376910	
36,806000	0,66	-0,375890	
36,817000	0,66	-0,370620	
36,828000	0,66	-0,381160	
36,839000	0,66	-0,373450	
36,850000	0,66	-0,362770	
36,861000	0,66	-0,371010	
36,872000	0,66	-0,385800	
36,883000	0,66	-0,378250	
36,894000	0,66	-0,382100	
36,905000	0,66	-0,371890	
36,916000	0,66	-0,367120	
36,927000	0,66	-0,373980	
36,938000	0,66	-0,378120	
36,949000	0,66	-0,376640	
36,960000	0,66	-0,374580	
36,971000	0,66	-0,370990	
36,982000	0,66	-0,373980	
36,993000	0,66	-0,379890	
37,004000	0,66	-0,389040	
37,015000	0,66	-0,392730	
37,026000	0,66	-0,396080	
37,037000	0,66	-0,395390	
37,048000	0,66	-0,394460	
37,059000	0,66	-0,390820	
37,070000	0,66	-0,392990	
37,081000	0,66	-0,396150	
37,092000	0,66	-0,400740	
37,103000	0,66	-0,408680	
37,114000	0,66	-0,411130	
37,125000	0,66	-0,419020	
37,136000	0,66	-0,425000	
37,147000	0,66	-0,417910	
37,158000	0,66	-0,415320	
37,169000	0,66	-0,414640	
37,180000	0,66	-0,416240	
37,191000	0,66	-0,421970	
37,202000	0,66	-0,425590	
37,213000	0,66	-0,428620	
37,224000	0,66	-0,429460	
37,235000	0,66	-0,423050	
37,246000	0,66	-0,428040	
37,257000	0,66	-0,436270	
37,268000	0,66	-0,435970	
37,279000	0,66	-0,442070	
37,290000	0,66	-0,445810	
37,301000	0,66	-0,444380	
37,312000	0,66	-0,442760	
37,323000	0,66	-0,441210	
37,334000	0,66	-0,438250	
37,345000	0,66	-0,437700	
37,356000	0,66	-0,439790	
37,367000	0,66	-0,447730	
37,378000	0,66	-0,451780	
37,389000	0,66	-0,449560	
37,400000	0,66	-0,449820	
37,411000	0,66	-0,453280	
37,422000	0,66	-0,454580	
37,433000	0,66	-0,462070	
37,444000	0,66	-0,464700	
37,455000	0,66	-0,469060	
37,466000	0,66	-0,467900	
37,477000	0,66	-0,465330	
37,488000	0,66	-0,472990	
37,499000	0,66	-0,463390	
37,510000	0,66	-0,446620	
37,521000	0,66	-0,455240	
37,532000	0,66	-0,451900	
37,543000	0,66	-0,442850	
37,554000	0,66	-0,445010	
37,565000	0,66	-0,451720	
37,576000	0,66	-0,468430	
37,587000	0,66	-0,477720	
37,598000	0,66	-0,480340	
37,609000	0,66	-0,481160	
37,620000	0,66	-0,480420	
37,631000	0,66	-0,465450	
37,642000	0,66	-0,456150	
37,653000	0,66	-0,456000	
37,664000	0,66	-0,470040	
37,675000	0,66	-0,466050	
37,686000	0,66	-0,457240	
37,697000	0,66	-0,456880	
37,708000	0,66	-0,450280	
37,719000	0,66	-0,459870	
37,730000	0,66	-0,460010	
37,741000	0,66	-0,467300	
37,752000	0,66	-0,468070	
37,763000	0,66	-0,463110	
37,774000	0,66	-0,457150	
37,785000	0,66	-0,449030	
37,796000	0,66	-0,446640	
37,807000	0,66	-0,448800	
37,818000	0,66	-0,456650	
37,829000	0,66	-0,457320	
37,840000	0,66	-0,450280	
37,851000	0,66	-0,455810	
37,862000	0,66	-0,457610	
37,873000	0,66	-0,451330	
37,884000	0,66	-0,453870	
37,895000	0,66	-0,463090	
37,906000	0,66	-0,463310	
37,917000	0,66	-0,460350	
37,928000	0,66	-0,466320	
37,939000	0,66	-0,474350	
37,950000	0,66	-0,471300	
37,961000	0,66	-0,464330	
37,972000	0,66	-0,466510	
37,983000	0,66	-0,469240	
37,994000	0,66	-0,477890	
38,005000	0,66	-0,486690	
38,016000	0,66	-0,483560	
38,027000	0,66	-0,488790	
38,038000	0,66	-0,483680	
38,049000	0,66	-0,472830	
38,060000	0,66	-0,466490	
38,071000	0,66	-0,465400	
38,082000	0,66	-0,462920	
38,093000	0,66	-0,466360	
38,104000	0,66	-0,467500	
38,115000	0,66	-0,467620	
38,126000	0,66	-0,473500	
38,137000	0,66	-0,473670	
38,148000	0,66	-0,471670	
38,159000	0,66	-0,484840	
38,170000	0,66	-0,485750	
38,181000	0,66	-0,476390	
38,192000	0,66	-0,484570	
38,203000	0,66	-0,487290	
38,214000	0,66	-0,486960	
38,225000	0,66	-0,486870	
38,236000	0,66	-0,490950	
38,247000	0,66	-0,489110	
38,258000	0,66	-0,488570	
38,269000	0,66	-0,483130	
38,280000	0,66	-0,482950	
38,291000	0,66	-0,487300	
38,302000	0,66	-0,494330	
38,313000	0,66	-0,505600	
38,324000	0,66	-0,508960	
38,335000	0,66	-0,499090	
38,346000	0,66	-0,495070	
38,357000	0,66	-0,488990	
38,368000	0,66	-0,487950	
38,379000	0,66	-0,484950	
38,390000	0,66	-0,475400	
38,401000	0,66	-0,475560	
38,412000	0,66	-0,488790	
38,423000	0,66	-0,496040	
38,434000	0,66	-0,499450	
38,445000	0,66	-0,488520	
38,456000	0,66	-0,476260	
38,467000	0,66	-0,476330	
38,478000	0,66	-0,470950	
38,489000	0,66	-0,469190	
38,500000	0,66	-0,477320	
38,511000	0,66	-0,480780	
38,522000	0,66	-0,488870	
38,533000	0,66	-0,493330	
38,544000	0,66	-0,501140	
38,555000	0,66	-0,499960	
38,566000	0,66	-0,488780	
38,577000	0,66	-0,488510	
38,588000	0,66	-0,490720	
38,599000	0,66	-0,490210	
38,610000	0,66	-0,491600	
38,621000	0,66	-0,491930	
38,632000	0,66	-0,488530	
38,643000	0,66	-0,479240	
38,654000	0,66	-0,473200	
38,665000	0,66	-0,477900	
38,676000	0,66	-0,487490	
38,687000	0,66	-0,496360	
38,698000	0,66	-0,504080	
38,709000	0,66	-0,514400	
38,720000	0,66	-0,510650	
38,731000	0,66	-0,496890	
38,742000	0,66	-0,496480	
38,753000	0,66	-0,485390	
38,764000	0,66	-0,475370	
38,775000	0,66	-0,473670	
38,786000	0,66	-0,472500	
38,797000	0,66	-0,481150	
38,808000	0,66	-0,491940	
38,819000	0,66	-0,497290	
38,830000	0,66	-0,497960	
38,841000	0,66	-0,499530	
38,852000	0,66	-0,489400	
38,863000	0,66	-0,491780	
38,874000	0,66	-0,491670	
38,885000	0,66	-0,490670	
38,896000	0,66	-0,482500	
38,907000	0,66	-0,481360	
38,918000	0,66	-0,494120	
38,929000	0,66	-0,498310	
38,940000	0,66	-0,498400	
38,951000	0,66	-0,502040	
38,962000	0,66	-0,507100	
38,973000	0,66	-0,501540	
38,984000	0,66	-0,489420	
38,995000	0,66	-0,484280	
39,006000	0,66	-0,489020	
39,017000	0,66	-0,495700	
39,028000	0,66	-0,485900	
39,039000	0,66	-0,474230	
39,050000	0,66	-0,477890	
39,061000	0,66	-0,479700	
39,072000	0,66	-0,492020	
39,083000	0,66	-0,486780	
39,094000	0,66	-0,488650	
39,105000	0,66	-0,484760	
39,116000	0,66	-0,477840	
39,127000	0,66	-0,478170	
39,138000	0,66	-0,486380	
39,149000	0,66	-0,492130	
39,160000	0,66	-0,488360	
39,171000	0,66	-0,493290	
39,182000	0,66	-0,493800	
39,193000	0,66	-0,495350	
39,204000	0,66	-0,499370	
39,215000	0,66	-0,495700	
39,226000	0,66	-0,482750	
39,237000	0,66	-0,473940	
39,248000	0,66	-0,473710	
39,259000	0,66	-0,472830	
39,270000	0,66	-0,469420	
39,281000	0,66	-0,471060	
39,292000	0,66	-0,474550	
39,303000	0,66	-0,474470	
39,314000	0,66	-0,467680	
39,325000	0,66	-0,466080	
39,336000	0,66	-0,468190	
39,347000	0,66	-0,471830	
39,358000	0,66	-0,487690	
39,369000	0,66	-0,496850	
39,380000	0,66	-0,496500	
39,391000	0,66	-0,497540	
39,402000	0,66	-0,496740	
39,413000	0,66	-0,489140	
39,424000	0,66	-0,486050	
39,435000	0,66	-0,490280	
39,446000	0,66	-0,483610	
39,457000	0,66	-0,492720	
39,468000	0,66	-0,498820	
39,479000	0,66	-0,484520	
39,490000	0,66	-0,474100	
39,501000	0,66	-0,483670	
39,512000	0,66	-0,485430	
39,523000	0,66	-0,496330	
39,534000	0,66	-0,500250	
39,545000	0,66	-0,490320	
39,556000	0,66	-0,477870	
39,567000	0,66	-0,485480	
39,578000	0,66	-0,494050	
39,589000	0,66	-0,495540	
39,600000	0,66	-0,495460	
39,611000	0,66	-0,491900	
39,622000	0,66	-0,489120	
39,633000	0,66	-0,494150	
39,644000	0,66	-0,507300	
39,655000	0,66	-0,499440	
39,666000	0,66	-0,503710	
39,677000	0,66	-0,486900	
39,688000	0,66	-0,482790	
39,699000	0,66	-0,488350	
39,710000	0,66	-0,486100	
39,721000	0,66	-0,479430	
39,732000	0,66	-0,478260	
39,743000	0,66	-0,486470	
39,754000	0,66	-0,493120	
39,765000	0,66	-0,499910	
39,776000	0,66	-0,494010	
39,787000	0,66	-0,493360	
39,798000	0,66	-0,495140	
39,809000	0,66	-0,502110	
39,820000	0,66	-0,502550	
39,831000	0,66	-0,487840	
39,842000	0,66	-0,494440	
39,853000	0,66	-0,499820	
39,864000	0,66	-0,502260	
39,875000	0,66	-0,505560	
39,886000	0,66	-0,507630	
39,897000	0,66	-0,514340	
39,908000	0,66	-0,513780	
39,919000	0,66	-0,512680	
39,930000	0,66	-0,505010	
39,941000	0,66	-0,499100	
39,952000	0,66	-0,496100	
39,963000	0,66	-0,490390	
39,974000	0,66	-0,488090	
39,985000	0,66	-0,491110	
39,996000	0,66	-0,494320	
40,007000	0,66	-0,499040	
