Filepath	C:\Chromel\data\Analytik\Walther group\Guido\mechanosense\GCR260.SEQ\UV_VIS_1.CHL\30161.acd
Channel	UV_VIS_1

Sample Information:
Datasource	PC-8NN4M2J_local
Sequence	Analytik\Walther group\Guido\mechanosense\GCR260.SEQ
Sample	200717-11
Sample Number	314
Sample Position	RC1
Sample ID	30161
Comment	260-P5-2
QNT method	default
PGM file	single-component-3 40min 60C 0,4mLmin
Type	unknown
Status	finished
Date	17.07.2020
Time	17:48:49
Injection Volume (µl)	100,00
Dilution Factor	1,000000
Amount	1,000000
Weight	1,000000

Raw Data Header Information:
Time Min. (min)	0,000
Time Max. (min)	40,007
Raw-Time Min. (min)	0,000
Raw-Time Max. (min)	40,007
Data Points	3638
Detector	VWD3000.dll
Preferred Read Mode	Unknown
Write Mode	Unknown
Data System	Chromeleon
Version High	06
Version Low	80
Build No.	3160
File Format Version	11
Generation Type	8
File ID	239054205
File Status	16
GUID	b144bda8-c844-11ea-b409-00184d71f7da
Signal Factor	0,000010
Signal Dimension	mAU
Signal Unit	Absorbance
Signal Min.	0,010700
Signal Max.	415,774770
Channel Name	UV_VIS_1
Driver Name	VWD-3x00 Detector
Min. Step	66
Max. Step	66
Average Step	66

Signal Parameter Information:
Signal Info	WVL:260 nm
Wavelength	260 nm
	 




















Raw Data:
Time(min)	Step(sec)	Value(mAU)
0,000000	0,00	0,051030	
0,011000	0,66	0,051110	
0,022000	0,66	0,051250	
0,033000	0,66	0,047000	
0,044000	0,66	0,045930	
0,055000	0,66	0,042990	
0,066000	0,66	0,041120	
0,077000	0,66	0,040280	
0,088000	0,66	0,037750	
0,099000	0,66	0,039000	
0,110000	0,66	0,038920	
0,121000	0,66	0,035550	
0,132000	0,66	0,036120	
0,143000	0,66	0,036380	
0,154000	0,66	0,039400	
0,165000	0,66	0,038700	
0,176000	0,66	0,035770	
0,187000	0,66	0,034870	
0,198000	0,66	0,037510	
0,209000	0,66	0,040510	
0,220000	0,66	0,038730	
0,231000	0,66	0,036680	
0,242000	0,66	0,038040	
0,253000	0,66	0,039030	
0,264000	0,66	0,036520	
0,275000	0,66	0,033390	
0,286000	0,66	0,029920	
0,297000	0,66	0,026360	
0,308000	0,66	0,022970	
0,319000	0,66	0,021630	
0,330000	0,66	0,021370	
0,341000	0,66	0,019860	
0,352000	0,66	0,019940	
0,363000	0,66	0,021830	
0,374000	0,66	0,021630	
0,385000	0,66	0,019620	
0,396000	0,66	0,017070	
0,407000	0,66	0,014680	
0,418000	0,66	0,012630	
0,429000	0,66	0,010880	
0,440000	0,66	0,011480	
0,451000	0,66	0,010830	
0,462000	0,66	0,010700	
0,473000	0,66	0,012780	
0,484000	0,66	0,014020	
0,495000	0,66	0,015460	
0,506000	0,66	0,017120	
0,517000	0,66	0,018490	
0,528000	0,66	0,017980	
0,539000	0,66	0,017140	
0,550000	0,66	0,017130	
0,561000	0,66	0,016820	
0,572000	0,66	0,018740	
0,583000	0,66	0,017520	
0,594000	0,66	0,016220	
0,605000	0,66	0,015180	
0,616000	0,66	0,018580	
0,627000	0,66	0,019520	
0,638000	0,66	0,019440	
0,649000	0,66	0,020130	
0,660000	0,66	0,018300	
0,671000	0,66	0,017610	
0,682000	0,66	0,019880	
0,693000	0,66	0,020910	
0,704000	0,66	0,019640	
0,715000	0,66	0,018020	
0,726000	0,66	0,019880	
0,737000	0,66	0,022260	
0,748000	0,66	0,026520	
0,759000	0,66	0,028100	
0,770000	0,66	0,026760	
0,781000	0,66	0,026470	
0,792000	0,66	0,025590	
0,803000	0,66	0,025130	
0,814000	0,66	0,024990	
0,825000	0,66	0,026940	
0,836000	0,66	0,026350	
0,847000	0,66	0,025900	
0,858000	0,66	0,026280	
0,869000	0,66	0,025740	
0,880000	0,66	0,023210	
0,891000	0,66	0,025650	
0,902000	0,66	0,025090	
0,913000	0,66	0,026140	
0,924000	0,66	0,028870	
0,935000	0,66	0,026570	
0,946000	0,66	0,024420	
0,957000	0,66	0,024540	
0,968000	0,66	0,025340	
0,979000	0,66	0,027240	
0,990000	0,66	0,027350	
1,001000	0,66	0,029580	
1,012000	0,66	0,033220	
1,023000	0,66	0,033730	
1,034000	0,66	0,033280	
1,045000	0,66	0,033440	
1,056000	0,66	0,032510	
1,067000	0,66	0,034590	
1,078000	0,66	0,036880	
1,089000	0,66	0,036240	
1,100000	0,66	0,036860	
1,111000	0,66	0,035050	
1,122000	0,66	0,032890	
1,133000	0,66	0,033150	
1,144000	0,66	0,034720	
1,155000	0,66	0,036570	
1,166000	0,66	0,036510	
1,177000	0,66	0,036230	
1,188000	0,66	0,035520	
1,199000	0,66	0,035060	
1,210000	0,66	0,034700	
1,221000	0,66	0,038190	
1,232000	0,66	0,037480	
1,243000	0,66	0,037870	
1,254000	0,66	0,042110	
1,265000	0,66	0,054540	
1,276000	0,66	0,107510	
1,287000	0,66	0,304110	
1,298000	0,66	0,923360	
1,309000	0,66	2,582200	
1,320000	0,66	5,984140	
1,331000	0,66	11,321250	
1,342000	0,66	17,811670	
1,353000	0,66	24,198460	
1,364000	0,66	29,436270	
1,375000	0,66	33,024550	
1,386000	0,66	34,972880	
1,397000	0,66	35,613640	
1,408000	0,66	35,345430	
1,419000	0,66	34,529980	
1,430000	0,66	33,421460	
1,441000	0,66	32,182960	
1,452000	0,66	30,906750	
1,463000	0,66	29,632880	
1,474000	0,66	28,389220	
1,485000	0,66	27,167160	
1,496000	0,66	25,956500	
1,507000	0,66	24,746440	
1,518000	0,66	23,521290	
1,529000	0,66	22,273910	
1,540000	0,66	21,005660	
1,551000	0,66	19,709370	
1,562000	0,66	18,398380	
1,573000	0,66	17,088230	
1,584000	0,66	15,785830	
1,595000	0,66	14,522760	
1,606000	0,66	13,318580	
1,617000	0,66	12,196950	
1,628000	0,66	11,175180	
1,639000	0,66	10,266250	
1,650000	0,66	9,474650	
1,661000	0,66	8,794030	
1,672000	0,66	8,215110	
1,683000	0,66	7,719170	
1,694000	0,66	7,286060	
1,705000	0,66	6,903240	
1,716000	0,66	6,564820	
1,727000	0,66	6,259730	
1,738000	0,66	5,980140	
1,749000	0,66	5,708630	
1,760000	0,66	5,434470	
1,771000	0,66	5,179960	
1,782000	0,66	4,941500	
1,793000	0,66	4,714940	
1,804000	0,66	4,500470	
1,815000	0,66	4,297760	
1,826000	0,66	4,104180	
1,837000	0,66	3,922010	
1,848000	0,66	3,751990	
1,859000	0,66	3,587330	
1,870000	0,66	3,432790	
1,881000	0,66	3,284860	
1,892000	0,66	3,141480	
1,903000	0,66	3,005630	
1,914000	0,66	2,875850	
1,925000	0,66	2,748760	
1,936000	0,66	2,622210	
1,947000	0,66	2,503970	
1,958000	0,66	2,388380	
1,969000	0,66	2,274480	
1,980000	0,66	2,170580	
1,991000	0,66	2,076880	
2,002000	0,66	1,987040	
2,013000	0,66	1,904170	
2,024000	0,66	1,826690	
2,035000	0,66	1,757150	
2,046000	0,66	1,685200	
2,057000	0,66	1,619100	
2,068000	0,66	1,555920	
2,079000	0,66	1,495870	
2,090000	0,66	1,433990	
2,101000	0,66	1,375150	
2,112000	0,66	1,317180	
2,123000	0,66	1,253890	
2,134000	0,66	1,190710	
2,145000	0,66	1,131390	
2,156000	0,66	1,080100	
2,167000	0,66	1,109840	
2,178000	0,66	1,257410	
2,189000	0,66	1,386850	
2,200000	0,66	1,387020	
2,211000	0,66	1,270820	
2,222000	0,66	1,106610	
2,233000	0,66	0,960360	
2,244000	0,66	0,857330	
2,255000	0,66	0,790730	
2,266000	0,66	0,755050	
2,277000	0,66	0,733870	
2,288000	0,66	0,722550	
2,299000	0,66	0,712270	
2,310000	0,66	0,705260	
2,321000	0,66	0,700710	
2,332000	0,66	0,692630	
2,343000	0,66	0,681440	
2,354000	0,66	0,671690	
2,365000	0,66	0,660280	
2,376000	0,66	0,649890	
2,387000	0,66	0,637350	
2,398000	0,66	0,625620	
2,409000	0,66	0,618800	
2,420000	0,66	0,608950	
2,431000	0,66	0,598000	
2,442000	0,66	0,590030	
2,453000	0,66	0,579160	
2,464000	0,66	0,566940	
2,475000	0,66	0,556710	
2,486000	0,66	0,547440	
2,497000	0,66	0,539010	
2,508000	0,66	0,530690	
2,519000	0,66	0,522200	
2,530000	0,66	0,513380	
2,541000	0,66	0,505880	
2,552000	0,66	0,498330	
2,563000	0,66	0,494120	
2,574000	0,66	0,489170	
2,585000	0,66	0,481480	
2,596000	0,66	0,472530	
2,607000	0,66	0,464620	
2,618000	0,66	0,454330	
2,629000	0,66	0,447800	
2,640000	0,66	0,444620	
2,651000	0,66	0,439490	
2,662000	0,66	0,437650	
2,673000	0,66	0,435380	
2,684000	0,66	0,430170	
2,695000	0,66	0,425770	
2,706000	0,66	0,420940	
2,717000	0,66	0,415990	
2,728000	0,66	0,411600	
2,739000	0,66	0,408020	
2,750000	0,66	0,402870	
2,761000	0,66	0,397910	
2,772000	0,66	0,392670	
2,783000	0,66	0,392390	
2,794000	0,66	0,390470	
2,805000	0,66	0,388140	
2,816000	0,66	0,388370	
2,827000	0,66	0,383110	
2,838000	0,66	0,378870	
2,849000	0,66	0,372830	
2,860000	0,66	0,369180	
2,871000	0,66	0,365140	
2,882000	0,66	0,361770	
2,893000	0,66	0,360900	
2,904000	0,66	0,355940	
2,915000	0,66	0,351840	
2,926000	0,66	0,348290	
2,937000	0,66	0,345250	
2,948000	0,66	0,338560	
2,959000	0,66	0,327660	
2,970000	0,66	0,317850	
2,981000	0,66	0,307670	
2,992000	0,66	0,300170	
3,003000	0,66	0,293370	
3,014000	0,66	0,285090	
3,025000	0,66	0,277020	
3,036000	0,66	0,267250	
3,047000	0,66	0,261870	
3,058000	0,66	0,258520	
3,069000	0,66	0,254670	
3,080000	0,66	0,251750	
3,091000	0,66	0,249510	
3,102000	0,66	0,247950	
3,113000	0,66	0,248570	
3,124000	0,66	0,250890	
3,135000	0,66	0,253900	
3,146000	0,66	0,254080	
3,157000	0,66	0,252050	
3,168000	0,66	0,253550	
3,179000	0,66	0,257040	
3,190000	0,66	0,257770	
3,201000	0,66	0,253560	
3,212000	0,66	0,247770	
3,223000	0,66	0,244920	
3,234000	0,66	0,243130	
3,245000	0,66	0,240230	
3,256000	0,66	0,238200	
3,267000	0,66	0,238290	
3,278000	0,66	0,237250	
3,289000	0,66	0,235010	
3,300000	0,66	0,233110	
3,311000	0,66	0,233320	
3,322000	0,66	0,231640	
3,333000	0,66	0,227500	
3,344000	0,66	0,225890	
3,355000	0,66	0,223660	
3,366000	0,66	0,224310	
3,377000	0,66	0,224010	
3,388000	0,66	0,225070	
3,399000	0,66	0,228280	
3,410000	0,66	0,224390	
3,421000	0,66	0,217740	
3,432000	0,66	0,215540	
3,443000	0,66	0,215670	
3,454000	0,66	0,214120	
3,465000	0,66	0,215320	
3,476000	0,66	0,213280	
3,487000	0,66	0,209970	
3,498000	0,66	0,210810	
3,509000	0,66	0,211050	
3,520000	0,66	0,209500	
3,531000	0,66	0,207560	
3,542000	0,66	0,206790	
3,553000	0,66	0,204590	
3,564000	0,66	0,204510	
3,575000	0,66	0,204040	
3,586000	0,66	0,204280	
3,597000	0,66	0,203630	
3,608000	0,66	0,203320	
3,619000	0,66	0,203790	
3,630000	0,66	0,202420	
3,641000	0,66	0,200180	
3,652000	0,66	0,198830	
3,663000	0,66	0,196960	
3,674000	0,66	0,196190	
3,685000	0,66	0,196490	
3,696000	0,66	0,194870	
3,707000	0,66	0,193570	
3,718000	0,66	0,194150	
3,729000	0,66	0,194930	
3,740000	0,66	0,193070	
3,751000	0,66	0,194650	
3,762000	0,66	0,193840	
3,773000	0,66	0,193870	
3,784000	0,66	0,194730	
3,795000	0,66	0,193410	
3,806000	0,66	0,194010	
3,817000	0,66	0,192130	
3,828000	0,66	0,190820	
3,839000	0,66	0,188300	
3,850000	0,66	0,184680	
3,861000	0,66	0,185410	
3,872000	0,66	0,185940	
3,883000	0,66	0,184970	
3,894000	0,66	0,184290	
3,905000	0,66	0,183820	
3,916000	0,66	0,183600	
3,927000	0,66	0,184100	
3,938000	0,66	0,182560	
3,949000	0,66	0,183930	
3,960000	0,66	0,183980	
3,971000	0,66	0,181350	
3,982000	0,66	0,181670	
3,993000	0,66	0,180440	
4,004000	0,66	0,181550	
4,015000	0,66	0,181810	
4,026000	0,66	0,179220	
4,037000	0,66	0,177860	
4,048000	0,66	0,177040	
4,059000	0,66	0,176020	
4,070000	0,66	0,177720	
4,081000	0,66	0,179480	
4,092000	0,66	0,178260	
4,103000	0,66	0,177400	
4,114000	0,66	0,176670	
4,125000	0,66	0,180940	
4,136000	0,66	0,180000	
4,147000	0,66	0,176760	
4,158000	0,66	0,176780	
4,169000	0,66	0,175550	
4,180000	0,66	0,172980	
4,191000	0,66	0,171440	
4,202000	0,66	0,170410	
4,213000	0,66	0,170940	
4,224000	0,66	0,174730	
4,235000	0,66	0,172570	
4,246000	0,66	0,169030	
4,257000	0,66	0,168450	
4,268000	0,66	0,167930	
4,279000	0,66	0,169600	
4,290000	0,66	0,171110	
4,301000	0,66	0,173110	
4,312000	0,66	0,175290	
4,323000	0,66	0,174440	
4,334000	0,66	0,173640	
4,345000	0,66	0,170610	
4,356000	0,66	0,170180	
4,367000	0,66	0,170220	
4,378000	0,66	0,171460	
4,389000	0,66	0,173760	
4,400000	0,66	0,171270	
4,411000	0,66	0,171930	
4,422000	0,66	0,172380	
4,433000	0,66	0,172270	
4,444000	0,66	0,172080	
4,455000	0,66	0,173980	
4,466000	0,66	0,174290	
4,477000	0,66	0,173380	
4,488000	0,66	0,173440	
4,499000	0,66	0,170030	
4,510000	0,66	0,168070	
4,521000	0,66	0,169370	
4,532000	0,66	0,169600	
4,543000	0,66	0,167200	
4,554000	0,66	0,164980	
4,565000	0,66	0,166790	
4,576000	0,66	0,168260	
4,587000	0,66	0,167230	
4,598000	0,66	0,166270	
4,609000	0,66	0,166000	
4,620000	0,66	0,166320	
4,631000	0,66	0,166020	
4,642000	0,66	0,164080	
4,653000	0,66	0,162000	
4,664000	0,66	0,161800	
4,675000	0,66	0,162460	
4,686000	0,66	0,163940	
4,697000	0,66	0,164600	
4,708000	0,66	0,166290	
4,719000	0,66	0,167320	
4,730000	0,66	0,166190	
4,741000	0,66	0,167200	
4,752000	0,66	0,165400	
4,763000	0,66	0,165860	
4,774000	0,66	0,167020	
4,785000	0,66	0,168780	
4,796000	0,66	0,166690	
4,807000	0,66	0,165720	
4,818000	0,66	0,166790	
4,829000	0,66	0,168420	
4,840000	0,66	0,168070	
4,851000	0,66	0,167940	
4,862000	0,66	0,170890	
4,873000	0,66	0,171520	
4,884000	0,66	0,171480	
4,895000	0,66	0,168820	
4,906000	0,66	0,170460	
4,917000	0,66	0,169950	
4,928000	0,66	0,170530	
4,939000	0,66	0,169300	
4,950000	0,66	0,166840	
4,961000	0,66	0,164300	
4,972000	0,66	0,164210	
4,983000	0,66	0,165790	
4,994000	0,66	0,168240	
5,005000	0,66	0,168840	
5,016000	0,66	0,167220	
5,027000	0,66	0,167810	
5,038000	0,66	0,169840	
5,049000	0,66	0,170240	
5,060000	0,66	0,168610	
5,071000	0,66	0,167820	
5,082000	0,66	0,168960	
5,093000	0,66	0,169340	
5,104000	0,66	0,169110	
5,115000	0,66	0,168140	
5,126000	0,66	0,166330	
5,137000	0,66	0,164360	
5,148000	0,66	0,165020	
5,159000	0,66	0,165350	
5,170000	0,66	0,164330	
5,181000	0,66	0,165610	
5,192000	0,66	0,169880	
5,203000	0,66	0,172540	
5,214000	0,66	0,174030	
5,225000	0,66	0,176230	
5,236000	0,66	0,177440	
5,247000	0,66	0,177100	
5,258000	0,66	0,175840	
5,269000	0,66	0,174490	
5,280000	0,66	0,175100	
5,291000	0,66	0,177270	
5,302000	0,66	0,177700	
5,313000	0,66	0,177590	
5,324000	0,66	0,179130	
5,335000	0,66	0,180980	
5,346000	0,66	0,182970	
5,357000	0,66	0,184670	
5,368000	0,66	0,186400	
5,379000	0,66	0,190700	
5,390000	0,66	0,198400	
5,401000	0,66	0,207800	
5,412000	0,66	0,215310	
5,423000	0,66	0,221160	
5,434000	0,66	0,231570	
5,445000	0,66	0,245640	
5,456000	0,66	0,255830	
5,467000	0,66	0,270930	
5,478000	0,66	0,288160	
5,489000	0,66	0,305440	
5,500000	0,66	0,323730	
5,511000	0,66	0,337220	
5,522000	0,66	0,356160	
5,533000	0,66	0,374080	
5,544000	0,66	0,390370	
5,555000	0,66	0,402840	
5,566000	0,66	0,412590	
5,577000	0,66	0,420850	
5,588000	0,66	0,428870	
5,599000	0,66	0,432000	
5,610000	0,66	0,429950	
5,621000	0,66	0,427260	
5,632000	0,66	0,419800	
5,643000	0,66	0,411020	
5,654000	0,66	0,399100	
5,665000	0,66	0,383550	
5,676000	0,66	0,372120	
5,687000	0,66	0,358550	
5,698000	0,66	0,345740	
5,709000	0,66	0,331740	
5,720000	0,66	0,317600	
5,731000	0,66	0,303620	
5,742000	0,66	0,292720	
5,753000	0,66	0,282790	
5,764000	0,66	0,277010	
5,775000	0,66	0,270920	
5,786000	0,66	0,260690	
5,797000	0,66	0,253680	
5,808000	0,66	0,249380	
5,819000	0,66	0,246460	
5,830000	0,66	0,244890	
5,841000	0,66	0,242040	
5,852000	0,66	0,240360	
5,863000	0,66	0,240270	
5,874000	0,66	0,239890	
5,885000	0,66	0,239960	
5,896000	0,66	0,241070	
5,907000	0,66	0,243000	
5,918000	0,66	0,241370	
5,929000	0,66	0,239890	
5,940000	0,66	0,242920	
5,951000	0,66	0,248410	
5,962000	0,66	0,253290	
5,973000	0,66	0,256210	
5,984000	0,66	0,259000	
5,995000	0,66	0,260400	
6,006000	0,66	0,263020	
6,017000	0,66	0,265900	
6,028000	0,66	0,266500	
6,039000	0,66	0,265170	
6,050000	0,66	0,263660	
6,061000	0,66	0,265990	
6,072000	0,66	0,266790	
6,083000	0,66	0,267190	
6,094000	0,66	0,269420	
6,105000	0,66	0,270960	
6,116000	0,66	0,273790	
6,127000	0,66	0,276000	
6,138000	0,66	0,277920	
6,149000	0,66	0,278600	
6,160000	0,66	0,284220	
6,171000	0,66	0,286870	
6,182000	0,66	0,290290	
6,193000	0,66	0,288930	
6,204000	0,66	0,285970	
6,215000	0,66	0,287700	
6,226000	0,66	0,290090	
6,237000	0,66	0,294950	
6,248000	0,66	0,297890	
6,259000	0,66	0,299280	
6,270000	0,66	0,303570	
6,281000	0,66	0,304250	
6,292000	0,66	0,306200	
6,303000	0,66	0,307530	
6,314000	0,66	0,306800	
6,325000	0,66	0,307180	
6,336000	0,66	0,312560	
6,347000	0,66	0,314800	
6,358000	0,66	0,319790	
6,369000	0,66	0,323370	
6,380000	0,66	0,322530	
6,391000	0,66	0,322090	
6,402000	0,66	0,323170	
6,413000	0,66	0,323370	
6,424000	0,66	0,323880	
6,435000	0,66	0,327310	
6,446000	0,66	0,330720	
6,457000	0,66	0,332950	
6,468000	0,66	0,336120	
6,479000	0,66	0,339300	
6,490000	0,66	0,341050	
6,501000	0,66	0,345220	
6,512000	0,66	0,349380	
6,523000	0,66	0,351310	
6,534000	0,66	0,352240	
6,545000	0,66	0,354420	
6,556000	0,66	0,356190	
6,567000	0,66	0,358680	
6,578000	0,66	0,361290	
6,589000	0,66	0,362080	
6,600000	0,66	0,364630	
6,611000	0,66	0,367880	
6,622000	0,66	0,369660	
6,633000	0,66	0,371200	
6,644000	0,66	0,371660	
6,655000	0,66	0,373220	
6,666000	0,66	0,376300	
6,677000	0,66	0,379800	
6,688000	0,66	0,383440	
6,699000	0,66	0,384800	
6,710000	0,66	0,388500	
6,721000	0,66	0,393240	
6,732000	0,66	0,395260	
6,743000	0,66	0,394600	
6,754000	0,66	0,396020	
6,765000	0,66	0,398960	
6,776000	0,66	0,402700	
6,787000	0,66	0,403430	
6,798000	0,66	0,404250	
6,809000	0,66	0,407150	
6,820000	0,66	0,411430	
6,831000	0,66	0,411690	
6,842000	0,66	0,413980	
6,853000	0,66	0,416240	
6,864000	0,66	0,421000	
6,875000	0,66	0,424540	
6,886000	0,66	0,424280	
6,897000	0,66	0,426810	
6,908000	0,66	0,428510	
6,919000	0,66	0,429540	
6,930000	0,66	0,429340	
6,941000	0,66	0,429540	
6,952000	0,66	0,431660	
6,963000	0,66	0,435630	
6,974000	0,66	0,438610	
6,985000	0,66	0,441810	
6,996000	0,66	0,442190	
7,007000	0,66	0,442010	
7,018000	0,66	0,443170	
7,029000	0,66	0,443210	
7,040000	0,66	0,447140	
7,051000	0,66	0,447930	
7,062000	0,66	0,448490	
7,073000	0,66	0,450190	
7,084000	0,66	0,451250	
7,095000	0,66	0,450140	
7,106000	0,66	0,451910	
7,117000	0,66	0,457180	
7,128000	0,66	0,459560	
7,139000	0,66	0,458610	
7,150000	0,66	0,461070	
7,161000	0,66	0,463130	
7,172000	0,66	0,464850	
7,183000	0,66	0,467230	
7,194000	0,66	0,468770	
7,205000	0,66	0,469550	
7,216000	0,66	0,469430	
7,227000	0,66	0,472330	
7,238000	0,66	0,475030	
7,249000	0,66	0,473980	
7,260000	0,66	0,473010	
7,271000	0,66	0,471980	
7,282000	0,66	0,472850	
7,293000	0,66	0,476130	
7,304000	0,66	0,478380	
7,315000	0,66	0,478850	
7,326000	0,66	0,478210	
7,337000	0,66	0,478250	
7,348000	0,66	0,481950	
7,359000	0,66	0,485250	
7,370000	0,66	0,487750	
7,381000	0,66	0,493540	
7,392000	0,66	0,495540	
7,403000	0,66	0,493800	
7,414000	0,66	0,494060	
7,425000	0,66	0,494670	
7,436000	0,66	0,494090	
7,447000	0,66	0,496330	
7,458000	0,66	0,500680	
7,469000	0,66	0,500940	
7,480000	0,66	0,502030	
7,491000	0,66	0,503960	
7,502000	0,66	0,505800	
7,513000	0,66	0,510390	
7,524000	0,66	0,511060	
7,535000	0,66	0,512410	
7,546000	0,66	0,512700	
7,557000	0,66	0,513610	
7,568000	0,66	0,515250	
7,579000	0,66	0,518290	
7,590000	0,66	0,522510	
7,601000	0,66	0,524020	
7,612000	0,66	0,525200	
7,623000	0,66	0,526620	
7,634000	0,66	0,525520	
7,645000	0,66	0,527770	
7,656000	0,66	0,530200	
7,667000	0,66	0,528150	
7,678000	0,66	0,529750	
7,689000	0,66	0,532490	
7,700000	0,66	0,534890	
7,711000	0,66	0,538030	
7,722000	0,66	0,537620	
7,733000	0,66	0,542310	
7,744000	0,66	0,544650	
7,755000	0,66	0,546720	
7,766000	0,66	0,543800	
7,777000	0,66	0,548310	
7,788000	0,66	0,553300	
7,799000	0,66	0,554300	
7,810000	0,66	0,554670	
7,821000	0,66	0,556390	
7,832000	0,66	0,560060	
7,843000	0,66	0,565090	
7,854000	0,66	0,567390	
7,865000	0,66	0,566620	
7,876000	0,66	0,564520	
7,887000	0,66	0,565960	
7,898000	0,66	0,569690	
7,909000	0,66	0,574820	
7,920000	0,66	0,576950	
7,931000	0,66	0,576440	
7,942000	0,66	0,575690	
7,953000	0,66	0,577020	
7,964000	0,66	0,582040	
7,975000	0,66	0,587800	
7,986000	0,66	0,588920	
7,997000	0,66	0,588500	
8,008000	0,66	0,588730	
8,019000	0,66	0,587960	
8,030000	0,66	0,588680	
8,041000	0,66	0,590790	
8,052000	0,66	0,591550	
8,063000	0,66	0,594620	
8,074000	0,66	0,599280	
8,085000	0,66	0,599440	
8,096000	0,66	0,599970	
8,107000	0,66	0,600880	
8,118000	0,66	0,601520	
8,129000	0,66	0,605430	
8,140000	0,66	0,608950	
8,151000	0,66	0,611580	
8,162000	0,66	0,613030	
8,173000	0,66	0,614050	
8,184000	0,66	0,615290	
8,195000	0,66	0,616320	
8,206000	0,66	0,617920	
8,217000	0,66	0,620010	
8,228000	0,66	0,620120	
8,239000	0,66	0,619830	
8,250000	0,66	0,624850	
8,261000	0,66	0,625890	
8,272000	0,66	0,627820	
8,283000	0,66	0,628490	
8,294000	0,66	0,629050	
8,305000	0,66	0,631250	
8,316000	0,66	0,636570	
8,327000	0,66	0,636600	
8,338000	0,66	0,639010	
8,349000	0,66	0,642470	
8,360000	0,66	0,647240	
8,371000	0,66	0,651630	
8,382000	0,66	0,654120	
8,393000	0,66	0,656980	
8,404000	0,66	0,658580	
8,415000	0,66	0,664180	
8,426000	0,66	0,663480	
8,437000	0,66	0,662670	
8,448000	0,66	0,660870	
8,459000	0,66	0,662110	
8,470000	0,66	0,663810	
8,481000	0,66	0,665860	
8,492000	0,66	0,666550	
8,503000	0,66	0,667810	
8,514000	0,66	0,670490	
8,525000	0,66	0,674900	
8,536000	0,66	0,678190	
8,547000	0,66	0,680750	
8,558000	0,66	0,680730	
8,569000	0,66	0,682160	
8,580000	0,66	0,683790	
8,591000	0,66	0,685580	
8,602000	0,66	0,687560	
8,613000	0,66	0,690850	
8,624000	0,66	0,694920	
8,635000	0,66	0,695160	
8,646000	0,66	0,697210	
8,657000	0,66	0,701290	
8,668000	0,66	0,702280	
8,679000	0,66	0,702690	
8,690000	0,66	0,703640	
8,701000	0,66	0,704360	
8,712000	0,66	0,706110	
8,723000	0,66	0,710060	
8,734000	0,66	0,714470	
8,745000	0,66	0,719190	
8,756000	0,66	0,722080	
8,767000	0,66	0,721570	
8,778000	0,66	0,723610	
8,789000	0,66	0,726180	
8,800000	0,66	0,726670	
8,811000	0,66	0,729050	
8,822000	0,66	0,729990	
8,833000	0,66	0,727980	
8,844000	0,66	0,728740	
8,855000	0,66	0,732440	
8,866000	0,66	0,734470	
8,877000	0,66	0,737500	
8,888000	0,66	0,739420	
8,899000	0,66	0,741620	
8,910000	0,66	0,744870	
8,921000	0,66	0,743940	
8,932000	0,66	0,746480	
8,943000	0,66	0,750310	
8,954000	0,66	0,752530	
8,965000	0,66	0,755360	
8,976000	0,66	0,753090	
8,987000	0,66	0,753030	
8,998000	0,66	0,751210	
9,009000	0,66	0,752940	
9,020000	0,66	0,756180	
9,031000	0,66	0,759110	
9,042000	0,66	0,761640	
9,053000	0,66	0,761510	
9,064000	0,66	0,763180	
9,075000	0,66	0,764200	
9,086000	0,66	0,766760	
9,097000	0,66	0,766860	
9,108000	0,66	0,768580	
9,119000	0,66	0,768140	
9,130000	0,66	0,768580	
9,141000	0,66	0,770640	
9,152000	0,66	0,772470	
9,163000	0,66	0,776790	
9,174000	0,66	0,783250	
9,185000	0,66	0,788380	
9,196000	0,66	0,788390	
9,207000	0,66	0,784950	
9,218000	0,66	0,784260	
9,229000	0,66	0,785350	
9,240000	0,66	0,787980	
9,251000	0,66	0,792030	
9,262000	0,66	0,792390	
9,273000	0,66	0,795320	
9,284000	0,66	0,799860	
9,295000	0,66	0,800670	
9,306000	0,66	0,804340	
9,317000	0,66	0,815150	
9,328000	0,66	0,824300	
9,339000	0,66	0,831890	
9,350000	0,66	0,840390	
9,361000	0,66	0,851580	
9,372000	0,66	0,863000	
9,383000	0,66	0,870230	
9,394000	0,66	0,873090	
9,405000	0,66	0,872610	
9,416000	0,66	0,869260	
9,427000	0,66	0,863840	
9,438000	0,66	0,858150	
9,449000	0,66	0,852740	
9,460000	0,66	0,846930	
9,471000	0,66	0,842230	
9,482000	0,66	0,836350	
9,493000	0,66	0,830310	
9,504000	0,66	0,828950	
9,515000	0,66	0,828700	
9,526000	0,66	0,831250	
9,537000	0,66	0,832010	
9,548000	0,66	0,830920	
9,559000	0,66	0,831340	
9,570000	0,66	0,832940	
9,581000	0,66	0,832940	
9,592000	0,66	0,833420	
9,603000	0,66	0,832090	
9,614000	0,66	0,830180	
9,625000	0,66	0,834830	
9,636000	0,66	0,838970	
9,647000	0,66	0,840680	
9,658000	0,66	0,840950	
9,669000	0,66	0,838660	
9,680000	0,66	0,836880	
9,691000	0,66	0,835270	
9,702000	0,66	0,837530	
9,713000	0,66	0,839870	
9,724000	0,66	0,842890	
9,735000	0,66	0,844960	
9,746000	0,66	0,844790	
9,757000	0,66	0,846450	
9,768000	0,66	0,847530	
9,779000	0,66	0,850930	
9,790000	0,66	0,854900	
9,801000	0,66	0,856320	
9,812000	0,66	0,855580	
9,823000	0,66	0,856130	
9,834000	0,66	0,860540	
9,845000	0,66	0,863670	
9,856000	0,66	0,864080	
9,867000	0,66	0,863330	
9,878000	0,66	0,867690	
9,889000	0,66	0,870260	
9,900000	0,66	0,869400	
9,911000	0,66	0,865940	
9,922000	0,66	0,866870	
9,933000	0,66	0,868110	
9,944000	0,66	0,869790	
9,955000	0,66	0,871980	
9,966000	0,66	0,875440	
9,977000	0,66	0,876520	
9,988000	0,66	0,878610	
9,999000	0,66	0,883410	
10,010000	0,66	0,885360	
10,021000	0,66	0,885010	
10,032000	0,66	0,887700	
10,043000	0,66	0,887810	
10,054000	0,66	0,885950	
10,065000	0,66	0,884080	
10,076000	0,66	0,881790	
10,087000	0,66	0,881910	
10,098000	0,66	0,884770	
10,109000	0,66	0,887330	
10,120000	0,66	0,889010	
10,131000	0,66	0,888590	
10,142000	0,66	0,889730	
10,153000	0,66	0,894540	
10,164000	0,66	0,899740	
10,175000	0,66	0,905100	
10,186000	0,66	0,907120	
10,197000	0,66	0,906760	
10,208000	0,66	0,907680	
10,219000	0,66	0,911550	
10,230000	0,66	0,914820	
10,241000	0,66	0,915010	
10,252000	0,66	0,914910	
10,263000	0,66	0,915660	
10,274000	0,66	0,914020	
10,285000	0,66	0,912570	
10,296000	0,66	0,914870	
10,307000	0,66	0,917590	
10,318000	0,66	0,917520	
10,329000	0,66	0,919350	
10,340000	0,66	0,920300	
10,351000	0,66	0,920910	
10,362000	0,66	0,923590	
10,373000	0,66	0,925450	
10,384000	0,66	0,927230	
10,395000	0,66	0,925630	
10,406000	0,66	0,928880	
10,417000	0,66	0,933220	
10,428000	0,66	0,935240	
10,439000	0,66	0,934430	
10,450000	0,66	0,936520	
10,461000	0,66	0,940740	
10,472000	0,66	0,944720	
10,483000	0,66	0,948190	
10,494000	0,66	0,947800	
10,505000	0,66	0,948260	
10,516000	0,66	0,945480	
10,527000	0,66	0,949550	
10,538000	0,66	0,949380	
10,549000	0,66	0,949130	
10,560000	0,66	0,951750	
10,571000	0,66	0,954150	
10,582000	0,66	0,956670	
10,593000	0,66	0,958890	
10,604000	0,66	0,957690	
10,615000	0,66	0,959070	
10,626000	0,66	0,959730	
10,637000	0,66	0,959430	
10,648000	0,66	0,958630	
10,659000	0,66	0,958840	
10,670000	0,66	0,957440	
10,681000	0,66	0,955520	
10,692000	0,66	0,956670	
10,703000	0,66	0,957000	
10,714000	0,66	0,953260	
10,725000	0,66	0,953600	
10,736000	0,66	0,956430	
10,747000	0,66	0,960010	
10,758000	0,66	0,961810	
10,769000	0,66	0,963320	
10,780000	0,66	0,964720	
10,791000	0,66	0,964050	
10,802000	0,66	0,963010	
10,813000	0,66	0,961880	
10,824000	0,66	0,962680	
10,835000	0,66	0,964620	
10,846000	0,66	0,965760	
10,857000	0,66	0,968950	
10,868000	0,66	0,973420	
10,879000	0,66	0,973550	
10,890000	0,66	0,972070	
10,901000	0,66	0,974930	
10,912000	0,66	0,977590	
10,923000	0,66	0,982260	
10,934000	0,66	0,983460	
10,945000	0,66	0,983410	
10,956000	0,66	0,984720	
10,967000	0,66	0,985670	
10,978000	0,66	0,985380	
10,989000	0,66	0,987140	
11,000000	0,66	0,988290	
11,011000	0,66	0,990740	
11,022000	0,66	0,991330	
11,033000	0,66	0,989610	
11,044000	0,66	0,987800	
11,055000	0,66	0,992670	
11,066000	0,66	0,997670	
11,077000	0,66	0,998090	
11,088000	0,66	0,998640	
11,099000	0,66	1,000590	
11,110000	0,66	1,003580	
11,121000	0,66	1,006660	
11,132000	0,66	1,008690	
11,143000	0,66	1,007910	
11,154000	0,66	1,009240	
11,165000	0,66	1,010420	
11,176000	0,66	1,015060	
11,187000	0,66	1,014640	
11,198000	0,66	1,013990	
11,209000	0,66	1,015950	
11,220000	0,66	1,017850	
11,231000	0,66	1,021690	
11,242000	0,66	1,021710	
11,253000	0,66	1,025160	
11,264000	0,66	1,025980	
11,275000	0,66	1,029530	
11,286000	0,66	1,029930	
11,297000	0,66	1,028520	
11,308000	0,66	1,030710	
11,319000	0,66	1,035760	
11,330000	0,66	1,039650	
11,341000	0,66	1,043640	
11,352000	0,66	1,045720	
11,363000	0,66	1,047060	
11,374000	0,66	1,046930	
11,385000	0,66	1,044590	
11,396000	0,66	1,038590	
11,407000	0,66	1,038020	
11,418000	0,66	1,038360	
11,429000	0,66	1,035410	
11,440000	0,66	1,034790	
11,451000	0,66	1,033110	
11,462000	0,66	1,032080	
11,473000	0,66	1,032010	
11,484000	0,66	1,030680	
11,495000	0,66	1,030010	
11,506000	0,66	1,032180	
11,517000	0,66	1,034690	
11,528000	0,66	1,035860	
11,539000	0,66	1,036610	
11,550000	0,66	1,036110	
11,561000	0,66	1,033940	
11,572000	0,66	1,032450	
11,583000	0,66	1,035300	
11,594000	0,66	1,039690	
11,605000	0,66	1,042870	
11,616000	0,66	1,043090	
11,627000	0,66	1,041770	
11,638000	0,66	1,044540	
11,649000	0,66	1,049110	
11,660000	0,66	1,051100	
11,671000	0,66	1,051220	
11,682000	0,66	1,051570	
11,693000	0,66	1,051640	
11,704000	0,66	1,049990	
11,715000	0,66	1,048910	
11,726000	0,66	1,050150	
11,737000	0,66	1,051500	
11,748000	0,66	1,052730	
11,759000	0,66	1,055400	
11,770000	0,66	1,057110	
11,781000	0,66	1,059290	
11,792000	0,66	1,060300	
11,803000	0,66	1,061250	
11,814000	0,66	1,061600	
11,825000	0,66	1,064640	
11,836000	0,66	1,067170	
11,847000	0,66	1,070590	
11,858000	0,66	1,071940	
11,869000	0,66	1,074240	
11,880000	0,66	1,075790	
11,891000	0,66	1,074250	
11,902000	0,66	1,073140	
11,913000	0,66	1,077610	
11,924000	0,66	1,082090	
11,935000	0,66	1,082320	
11,946000	0,66	1,081340	
11,957000	0,66	1,078860	
11,968000	0,66	1,080710	
11,979000	0,66	1,082930	
11,990000	0,66	1,085590	
12,001000	0,66	1,086900	
12,012000	0,66	1,090140	
12,023000	0,66	1,092730	
12,034000	0,66	1,096500	
12,045000	0,66	1,100020	
12,056000	0,66	1,102360	
12,067000	0,66	1,101930	
12,078000	0,66	1,101730	
12,089000	0,66	1,101810	
12,100000	0,66	1,102950	
12,111000	0,66	1,103540	
12,122000	0,66	1,105180	
12,133000	0,66	1,107390	
12,144000	0,66	1,111030	
12,155000	0,66	1,116240	
12,166000	0,66	1,118840	
12,177000	0,66	1,120500	
12,188000	0,66	1,122770	
12,199000	0,66	1,124800	
12,210000	0,66	1,125830	
12,221000	0,66	1,127640	
12,232000	0,66	1,130250	
12,243000	0,66	1,130570	
12,254000	0,66	1,130100	
12,265000	0,66	1,130890	
12,276000	0,66	1,132480	
12,287000	0,66	1,135350	
12,298000	0,66	1,139050	
12,309000	0,66	1,140700	
12,320000	0,66	1,141550	
12,331000	0,66	1,138720	
12,342000	0,66	1,138790	
12,353000	0,66	1,140020	
12,364000	0,66	1,144930	
12,375000	0,66	1,148430	
12,386000	0,66	1,147720	
12,397000	0,66	1,148310	
12,408000	0,66	1,149050	
12,419000	0,66	1,150790	
12,430000	0,66	1,158020	
12,441000	0,66	1,163140	
12,452000	0,66	1,164070	
12,463000	0,66	1,164390	
12,474000	0,66	1,166040	
12,485000	0,66	1,169630	
12,496000	0,66	1,168600	
12,507000	0,66	1,168930	
12,518000	0,66	1,169890	
12,529000	0,66	1,169100	
12,540000	0,66	1,171270	
12,551000	0,66	1,174210	
12,562000	0,66	1,176250	
12,573000	0,66	1,182910	
12,584000	0,66	1,187320	
12,595000	0,66	1,192180	
12,606000	0,66	1,197820	
12,617000	0,66	1,200510	
12,628000	0,66	1,204780	
12,639000	0,66	1,206940	
12,650000	0,66	1,211010	
12,661000	0,66	1,218950	
12,672000	0,66	1,225350	
12,683000	0,66	1,229140	
12,694000	0,66	1,231780	
12,705000	0,66	1,234580	
12,716000	0,66	1,236960	
12,727000	0,66	1,239280	
12,738000	0,66	1,240230	
12,749000	0,66	1,244030	
12,760000	0,66	1,247460	
12,771000	0,66	1,252040	
12,782000	0,66	1,253420	
12,793000	0,66	1,249750	
12,804000	0,66	1,252310	
12,815000	0,66	1,256500	
12,826000	0,66	1,259400	
12,837000	0,66	1,261500	
12,848000	0,66	1,260490	
12,859000	0,66	1,256770	
12,870000	0,66	1,256570	
12,881000	0,66	1,260490	
12,892000	0,66	1,264530	
12,903000	0,66	1,266880	
12,914000	0,66	1,270770	
12,925000	0,66	1,277080	
12,936000	0,66	1,280690	
12,947000	0,66	1,282520	
12,958000	0,66	1,285070	
12,969000	0,66	1,288680	
12,980000	0,66	1,292880	
12,991000	0,66	1,294500	
13,002000	0,66	1,295480	
13,013000	0,66	1,300040	
13,024000	0,66	1,306080	
13,035000	0,66	1,308670	
13,046000	0,66	1,312530	
13,057000	0,66	1,317140	
13,068000	0,66	1,321900	
13,079000	0,66	1,327530	
13,090000	0,66	1,334070	
13,101000	0,66	1,338570	
13,112000	0,66	1,342690	
13,123000	0,66	1,347890	
13,134000	0,66	1,351960	
13,145000	0,66	1,355490	
13,156000	0,66	1,363420	
13,167000	0,66	1,367420	
13,178000	0,66	1,371080	
13,189000	0,66	1,379160	
13,200000	0,66	1,386260	
13,211000	0,66	1,388740	
13,222000	0,66	1,396100	
13,233000	0,66	1,400010	
13,244000	0,66	1,404990	
13,255000	0,66	1,406760	
13,266000	0,66	1,411350	
13,277000	0,66	1,419440	
13,288000	0,66	1,422170	
13,299000	0,66	1,421760	
13,310000	0,66	1,425830	
13,321000	0,66	1,431090	
13,332000	0,66	1,435080	
13,343000	0,66	1,438760	
13,354000	0,66	1,439050	
13,365000	0,66	1,443510	
13,376000	0,66	1,449170	
13,387000	0,66	1,454550	
13,398000	0,66	1,461440	
13,409000	0,66	1,466710	
13,420000	0,66	1,470510	
13,431000	0,66	1,475230	
13,442000	0,66	1,479700	
13,453000	0,66	1,483060	
13,464000	0,66	1,487530	
13,475000	0,66	1,493420	
13,486000	0,66	1,500140	
13,497000	0,66	1,506880	
13,508000	0,66	1,514850	
13,519000	0,66	1,518960	
13,530000	0,66	1,521040	
13,541000	0,66	1,522220	
13,552000	0,66	1,523410	
13,563000	0,66	1,527370	
13,574000	0,66	1,533050	
13,585000	0,66	1,537370	
13,596000	0,66	1,540710	
13,607000	0,66	1,544140	
13,618000	0,66	1,545660	
13,629000	0,66	1,548370	
13,640000	0,66	1,552660	
13,651000	0,66	1,554200	
13,662000	0,66	1,556560	
13,673000	0,66	1,560780	
13,684000	0,66	1,562290	
13,695000	0,66	1,563560	
13,706000	0,66	1,568650	
13,717000	0,66	1,571170	
13,728000	0,66	1,573610	
13,739000	0,66	1,577290	
13,750000	0,66	1,582110	
13,761000	0,66	1,583230	
13,772000	0,66	1,583830	
13,783000	0,66	1,582200	
13,794000	0,66	1,580390	
13,805000	0,66	1,582210	
13,816000	0,66	1,583580	
13,827000	0,66	1,583680	
13,838000	0,66	1,586880	
13,849000	0,66	1,588640	
13,860000	0,66	1,591160	
13,871000	0,66	1,593810	
13,882000	0,66	1,595620	
13,893000	0,66	1,598650	
13,904000	0,66	1,600510	
13,915000	0,66	1,601150	
13,926000	0,66	1,604340	
13,937000	0,66	1,605570	
13,948000	0,66	1,605860	
13,959000	0,66	1,607900	
13,970000	0,66	1,613120	
13,981000	0,66	1,616090	
13,992000	0,66	1,622430	
14,003000	0,66	1,625480	
14,014000	0,66	1,629930	
14,025000	0,66	1,634150	
14,036000	0,66	1,635950	
14,047000	0,66	1,639670	
14,058000	0,66	1,644050	
14,069000	0,66	1,651780	
14,080000	0,66	1,659390	
14,091000	0,66	1,671260	
14,102000	0,66	1,683640	
14,113000	0,66	1,698410	
14,124000	0,66	1,714990	
14,135000	0,66	1,737290	
14,146000	0,66	1,758480	
14,157000	0,66	1,775120	
14,168000	0,66	1,788220	
14,179000	0,66	1,803880	
14,190000	0,66	1,818870	
14,201000	0,66	1,836480	
14,212000	0,66	1,853770	
14,223000	0,66	1,870200	
14,234000	0,66	1,885510	
14,245000	0,66	1,902590	
14,256000	0,66	1,920590	
14,267000	0,66	1,934870	
14,278000	0,66	1,942020	
14,289000	0,66	1,943420	
14,300000	0,66	1,942050	
14,311000	0,66	1,934220	
14,322000	0,66	1,921140	
14,333000	0,66	1,904080	
14,344000	0,66	1,882840	
14,355000	0,66	1,862570	
14,366000	0,66	1,843800	
14,377000	0,66	1,823280	
14,388000	0,66	1,799830	
14,399000	0,66	1,778750	
14,410000	0,66	1,755790	
14,421000	0,66	1,734140	
14,432000	0,66	1,716710	
14,443000	0,66	1,701780	
14,454000	0,66	1,688450	
14,465000	0,66	1,677450	
14,476000	0,66	1,671920	
14,487000	0,66	1,675610	
14,498000	0,66	1,683490	
14,509000	0,66	1,696640	
14,520000	0,66	1,715220	
14,531000	0,66	1,742140	
14,542000	0,66	1,769420	
14,553000	0,66	1,795530	
14,564000	0,66	1,814710	
14,575000	0,66	1,818750	
14,586000	0,66	1,808030	
14,597000	0,66	1,789450	
14,608000	0,66	1,764450	
14,619000	0,66	1,733920	
14,630000	0,66	1,708890	
14,641000	0,66	1,688690	
14,652000	0,66	1,670350	
14,663000	0,66	1,655940	
14,674000	0,66	1,643040	
14,685000	0,66	1,637180	
14,696000	0,66	1,630250	
14,707000	0,66	1,624220	
14,718000	0,66	1,620270	
14,729000	0,66	1,616440	
14,740000	0,66	1,613750	
14,751000	0,66	1,607100	
14,762000	0,66	1,601500	
14,773000	0,66	1,601900	
14,784000	0,66	1,604590	
14,795000	0,66	1,603550	
14,806000	0,66	1,598400	
14,817000	0,66	1,597470	
14,828000	0,66	1,599640	
14,839000	0,66	1,601740	
14,850000	0,66	1,602250	
14,861000	0,66	1,606420	
14,872000	0,66	1,608890	
14,883000	0,66	1,608520	
14,894000	0,66	1,609640	
14,905000	0,66	1,610120	
14,916000	0,66	1,612460	
14,927000	0,66	1,616310	
14,938000	0,66	1,619180	
14,949000	0,66	1,621100	
14,960000	0,66	1,623690	
14,971000	0,66	1,625340	
14,982000	0,66	1,628240	
14,993000	0,66	1,630590	
15,004000	0,66	1,631200	
15,015000	0,66	1,629590	
15,026000	0,66	1,624330	
15,037000	0,66	1,619060	
15,048000	0,66	1,615230	
15,059000	0,66	1,611690	
15,070000	0,66	1,608350	
15,081000	0,66	1,608220	
15,092000	0,66	1,610310	
15,103000	0,66	1,611360	
15,114000	0,66	1,608100	
15,125000	0,66	1,605350	
15,136000	0,66	1,606300	
15,147000	0,66	1,607550	
15,158000	0,66	1,606370	
15,169000	0,66	1,607650	
15,180000	0,66	1,609370	
15,191000	0,66	1,610810	
15,202000	0,66	1,612640	
15,213000	0,66	1,614650	
15,224000	0,66	1,614970	
15,235000	0,66	1,617650	
15,246000	0,66	1,620280	
15,257000	0,66	1,620340	
15,268000	0,66	1,622980	
15,279000	0,66	1,627480	
15,290000	0,66	1,635060	
15,301000	0,66	1,642920	
15,312000	0,66	1,652980	
15,323000	0,66	1,666080	
15,334000	0,66	1,679690	
15,345000	0,66	1,692050	
15,356000	0,66	1,699340	
15,367000	0,66	1,700570	
15,378000	0,66	1,700610	
15,389000	0,66	1,698520	
15,400000	0,66	1,691930	
15,411000	0,66	1,687440	
15,422000	0,66	1,681520	
15,433000	0,66	1,677950	
15,444000	0,66	1,674230	
15,455000	0,66	1,673860	
15,466000	0,66	1,671820	
15,477000	0,66	1,671520	
15,488000	0,66	1,674680	
15,499000	0,66	1,677360	
15,510000	0,66	1,678410	
15,521000	0,66	1,678220	
15,532000	0,66	1,681350	
15,543000	0,66	1,684450	
15,554000	0,66	1,684910	
15,565000	0,66	1,686560	
15,576000	0,66	1,689650	
15,587000	0,66	1,692380	
15,598000	0,66	1,695090	
15,609000	0,66	1,701820	
15,620000	0,66	1,709160	
15,631000	0,66	1,713750	
15,642000	0,66	1,719310	
15,653000	0,66	1,728490	
15,664000	0,66	1,737990	
15,675000	0,66	1,751210	
15,686000	0,66	1,772390	
15,697000	0,66	1,801430	
15,708000	0,66	1,839580	
15,719000	0,66	1,885500	
15,730000	0,66	1,938980	
15,741000	0,66	1,997050	
15,752000	0,66	2,045650	
15,763000	0,66	2,075620	
15,774000	0,66	2,089850	
15,785000	0,66	2,087800	
15,796000	0,66	2,073790	
15,807000	0,66	2,055400	
15,818000	0,66	2,035010	
15,829000	0,66	2,014730	
15,840000	0,66	1,999650	
15,851000	0,66	1,986190	
15,862000	0,66	1,975160	
15,873000	0,66	1,966850	
15,884000	0,66	1,966590	
15,895000	0,66	1,970080	
15,906000	0,66	1,976230	
15,917000	0,66	1,987540	
15,928000	0,66	2,000420	
15,939000	0,66	2,020000	
15,950000	0,66	2,038230	
15,961000	0,66	2,050870	
15,972000	0,66	2,068300	
15,983000	0,66	2,090010	
15,994000	0,66	2,109350	
16,005000	0,66	2,127690	
16,016000	0,66	2,140920	
16,027000	0,66	2,155260	
16,038000	0,66	2,165680	
16,049000	0,66	2,175190	
16,060000	0,66	2,182350	
16,071000	0,66	2,190120	
16,082000	0,66	2,194370	
16,093000	0,66	2,197540	
16,104000	0,66	2,199990	
16,115000	0,66	2,199660	
16,126000	0,66	2,200840	
16,137000	0,66	2,204680	
16,148000	0,66	2,206170	
16,159000	0,66	2,209580	
16,170000	0,66	2,211500	
16,181000	0,66	2,216730	
16,192000	0,66	2,219290	
16,203000	0,66	2,222060	
16,214000	0,66	2,224370	
16,225000	0,66	2,228760	
16,236000	0,66	2,237110	
16,247000	0,66	2,248120	
16,258000	0,66	2,258690	
16,269000	0,66	2,264800	
16,280000	0,66	2,269220	
16,291000	0,66	2,271670	
16,302000	0,66	2,272850	
16,313000	0,66	2,275140	
16,324000	0,66	2,274100	
16,335000	0,66	2,272360	
16,346000	0,66	2,275620	
16,357000	0,66	2,278140	
16,368000	0,66	2,280340	
16,379000	0,66	2,282600	
16,390000	0,66	2,281570	
16,401000	0,66	2,281200	
16,412000	0,66	2,283170	
16,423000	0,66	2,286490	
16,434000	0,66	2,290700	
16,445000	0,66	2,293930	
16,456000	0,66	2,298260	
16,467000	0,66	2,304700	
16,478000	0,66	2,312520	
16,489000	0,66	2,319810	
16,500000	0,66	2,322350	
16,511000	0,66	2,324680	
16,522000	0,66	2,328420	
16,533000	0,66	2,331930	
16,544000	0,66	2,334480	
16,555000	0,66	2,337980	
16,566000	0,66	2,340990	
16,577000	0,66	2,344070	
16,588000	0,66	2,344800	
16,599000	0,66	2,340720	
16,610000	0,66	2,337040	
16,621000	0,66	2,333630	
16,632000	0,66	2,329530	
16,643000	0,66	2,329750	
16,654000	0,66	2,330680	
16,665000	0,66	2,334370	
16,676000	0,66	2,334490	
16,687000	0,66	2,331140	
16,698000	0,66	2,328840	
16,709000	0,66	2,331410	
16,720000	0,66	2,335070	
16,731000	0,66	2,338360	
16,742000	0,66	2,338780	
16,753000	0,66	2,341620	
16,764000	0,66	2,345910	
16,775000	0,66	2,347880	
16,786000	0,66	2,352970	
16,797000	0,66	2,359480	
16,808000	0,66	2,363130	
16,819000	0,66	2,368700	
16,830000	0,66	2,377070	
16,841000	0,66	2,385050	
16,852000	0,66	2,394970	
16,863000	0,66	2,407260	
16,874000	0,66	2,419600	
16,885000	0,66	2,429730	
16,896000	0,66	2,439840	
16,907000	0,66	2,447120	
16,918000	0,66	2,455490	
16,929000	0,66	2,463900	
16,940000	0,66	2,470990	
16,951000	0,66	2,477630	
16,962000	0,66	2,484350	
16,973000	0,66	2,490980	
16,984000	0,66	2,499230	
16,995000	0,66	2,507930	
17,006000	0,66	2,513990	
17,017000	0,66	2,519290	
17,028000	0,66	2,523840	
17,039000	0,66	2,528900	
17,050000	0,66	2,533460	
17,061000	0,66	2,541030	
17,072000	0,66	2,552680	
17,083000	0,66	2,566190	
17,094000	0,66	2,578040	
17,105000	0,66	2,588880	
17,116000	0,66	2,602360	
17,127000	0,66	2,617850	
17,138000	0,66	2,633570	
17,149000	0,66	2,647440	
17,160000	0,66	2,661310	
17,171000	0,66	2,675570	
17,182000	0,66	2,691150	
17,193000	0,66	2,709500	
17,204000	0,66	2,729590	
17,215000	0,66	2,745600	
17,226000	0,66	2,760250	
17,237000	0,66	2,777280	
17,248000	0,66	2,793080	
17,259000	0,66	2,812460	
17,270000	0,66	2,834520	
17,281000	0,66	2,853920	
17,292000	0,66	2,870880	
17,303000	0,66	2,884450	
17,314000	0,66	2,899580	
17,325000	0,66	2,913590	
17,336000	0,66	2,924480	
17,347000	0,66	2,935890	
17,358000	0,66	2,947300	
17,369000	0,66	2,958760	
17,380000	0,66	2,971360	
17,391000	0,66	2,983870	
17,402000	0,66	2,998700	
17,413000	0,66	3,014580	
17,424000	0,66	3,031120	
17,435000	0,66	3,049020	
17,446000	0,66	3,066300	
17,457000	0,66	3,080310	
17,468000	0,66	3,090340	
17,479000	0,66	3,105150	
17,490000	0,66	3,114900	
17,501000	0,66	3,123530	
17,512000	0,66	3,130890	
17,523000	0,66	3,138800	
17,534000	0,66	3,144270	
17,545000	0,66	3,149240	
17,556000	0,66	3,150690	
17,567000	0,66	3,153870	
17,578000	0,66	3,156260	
17,589000	0,66	3,154660	
17,600000	0,66	3,156340	
17,611000	0,66	3,162320	
17,622000	0,66	3,163880	
17,633000	0,66	3,168480	
17,644000	0,66	3,174410	
17,655000	0,66	3,180350	
17,666000	0,66	3,185790	
17,677000	0,66	3,191900	
17,688000	0,66	3,197670	
17,699000	0,66	3,198310	
17,710000	0,66	3,199540	
17,721000	0,66	3,203080	
17,732000	0,66	3,207950	
17,743000	0,66	3,215400	
17,754000	0,66	3,224000	
17,765000	0,66	3,235270	
17,776000	0,66	3,247860	
17,787000	0,66	3,260080	
17,798000	0,66	3,275160	
17,809000	0,66	3,293230	
17,820000	0,66	3,311620	
17,831000	0,66	3,328690	
17,842000	0,66	3,347160	
17,853000	0,66	3,367780	
17,864000	0,66	3,389710	
17,875000	0,66	3,417190	
17,886000	0,66	3,456050	
17,897000	0,66	3,515850	
17,908000	0,66	3,606820	
17,919000	0,66	3,735740	
17,930000	0,66	3,917670	
17,941000	0,66	4,160090	
17,952000	0,66	4,476050	
17,963000	0,66	4,857060	
17,974000	0,66	5,295860	
17,985000	0,66	5,772990	
17,996000	0,66	6,264850	
18,007000	0,66	6,737900	
18,018000	0,66	7,176800	
18,029000	0,66	7,566480	
18,040000	0,66	7,900890	
18,051000	0,66	8,189740	
18,062000	0,66	8,452320	
18,073000	0,66	8,705880	
18,084000	0,66	8,974600	
18,095000	0,66	9,289790	
18,106000	0,66	9,670870	
18,117000	0,66	10,143210	
18,128000	0,66	10,723000	
18,139000	0,66	11,426320	
18,150000	0,66	12,255350	
18,161000	0,66	13,206730	
18,172000	0,66	14,257190	
18,183000	0,66	15,370320	
18,194000	0,66	16,490160	
18,205000	0,66	17,547810	
18,216000	0,66	18,477170	
18,227000	0,66	19,212850	
18,238000	0,66	19,707100	
18,249000	0,66	19,942460	
18,260000	0,66	19,931320	
18,271000	0,66	19,717450	
18,282000	0,66	19,360350	
18,293000	0,66	18,912850	
18,304000	0,66	18,429580	
18,315000	0,66	17,946750	
18,326000	0,66	17,470060	
18,337000	0,66	16,991070	
18,348000	0,66	16,496980	
18,359000	0,66	15,967620	
18,370000	0,66	15,379370	
18,381000	0,66	14,726490	
18,392000	0,66	14,024710	
18,403000	0,66	13,293420	
18,414000	0,66	12,557510	
18,425000	0,66	11,835650	
18,436000	0,66	11,140380	
18,447000	0,66	10,486840	
18,458000	0,66	9,871890	
18,469000	0,66	9,290570	
18,480000	0,66	8,745920	
18,491000	0,66	8,227610	
18,502000	0,66	7,734810	
18,513000	0,66	7,271860	
18,524000	0,66	6,839910	
18,535000	0,66	6,443420	
18,546000	0,66	6,084160	
18,557000	0,66	5,766330	
18,568000	0,66	5,487100	
18,579000	0,66	5,243980	
18,590000	0,66	5,031880	
18,601000	0,66	4,844980	
18,612000	0,66	4,682560	
18,623000	0,66	4,540980	
18,634000	0,66	4,412540	
18,645000	0,66	4,296760	
18,656000	0,66	4,193790	
18,667000	0,66	4,099700	
18,678000	0,66	4,016660	
18,689000	0,66	3,941590	
18,700000	0,66	3,874050	
18,711000	0,66	3,816840	
18,722000	0,66	3,767250	
18,733000	0,66	3,723230	
18,744000	0,66	3,686850	
18,755000	0,66	3,655770	
18,766000	0,66	3,627290	
18,777000	0,66	3,595820	
18,788000	0,66	3,560080	
18,799000	0,66	3,521620	
18,810000	0,66	3,478730	
18,821000	0,66	3,430610	
18,832000	0,66	3,381220	
18,843000	0,66	3,328530	
18,854000	0,66	3,279390	
18,865000	0,66	3,233460	
18,876000	0,66	3,190890	
18,887000	0,66	3,149110	
18,898000	0,66	3,112800	
18,909000	0,66	3,080480	
18,920000	0,66	3,047670	
18,931000	0,66	3,017550	
18,942000	0,66	2,993070	
18,953000	0,66	2,970810	
18,964000	0,66	2,947670	
18,975000	0,66	2,926900	
18,986000	0,66	2,909960	
18,997000	0,66	2,892630	
19,008000	0,66	2,873970	
19,019000	0,66	2,857880	
19,030000	0,66	2,844850	
19,041000	0,66	2,831280	
19,052000	0,66	2,813770	
19,063000	0,66	2,793940	
19,074000	0,66	2,771230	
19,085000	0,66	2,749720	
19,096000	0,66	2,724870	
19,107000	0,66	2,697700	
19,118000	0,66	2,673850	
19,129000	0,66	2,650770	
19,140000	0,66	2,627990	
19,151000	0,66	2,605290	
19,162000	0,66	2,583270	
19,173000	0,66	2,560120	
19,184000	0,66	2,535760	
19,195000	0,66	2,514700	
19,206000	0,66	2,494730	
19,217000	0,66	2,475130	
19,228000	0,66	2,456480	
19,239000	0,66	2,437040	
19,250000	0,66	2,421610	
19,261000	0,66	2,409420	
19,272000	0,66	2,397750	
19,283000	0,66	2,384450	
19,294000	0,66	2,372570	
19,305000	0,66	2,358900	
19,316000	0,66	2,349120	
19,327000	0,66	2,341600	
19,338000	0,66	2,333150	
19,349000	0,66	2,324560	
19,360000	0,66	2,314990	
19,371000	0,66	2,304170	
19,382000	0,66	2,290850	
19,393000	0,66	2,279280	
19,404000	0,66	2,269610	
19,415000	0,66	2,259300	
19,426000	0,66	2,252740	
19,437000	0,66	2,249470	
19,448000	0,66	2,247040	
19,459000	0,66	2,244970	
19,470000	0,66	2,242510	
19,481000	0,66	2,241470	
19,492000	0,66	2,237330	
19,503000	0,66	2,232890	
19,514000	0,66	2,227660	
19,525000	0,66	2,220380	
19,536000	0,66	2,213770	
19,547000	0,66	2,204330	
19,558000	0,66	2,193940	
19,569000	0,66	2,182440	
19,580000	0,66	2,170610	
19,591000	0,66	2,161680	
19,602000	0,66	2,152880	
19,613000	0,66	2,141840	
19,624000	0,66	2,128570	
19,635000	0,66	2,116960	
19,646000	0,66	2,105290	
19,657000	0,66	2,095340	
19,668000	0,66	2,085890	
19,679000	0,66	2,076720	
19,690000	0,66	2,067820	
19,701000	0,66	2,059180	
19,712000	0,66	2,052390	
19,723000	0,66	2,047070	
19,734000	0,66	2,044020	
19,745000	0,66	2,038400	
19,756000	0,66	2,033460	
19,767000	0,66	2,029410	
19,778000	0,66	2,021890	
19,789000	0,66	2,015240	
19,800000	0,66	2,011340	
19,811000	0,66	2,007140	
19,822000	0,66	2,000620	
19,833000	0,66	1,992520	
19,844000	0,66	1,986360	
19,855000	0,66	1,980030	
19,866000	0,66	1,975020	
19,877000	0,66	1,970040	
19,888000	0,66	1,961640	
19,899000	0,66	1,954500	
19,910000	0,66	1,951510	
19,921000	0,66	1,951130	
19,932000	0,66	1,951340	
19,943000	0,66	1,950440	
19,954000	0,66	1,952600	
19,965000	0,66	1,957320	
19,976000	0,66	1,957310	
19,987000	0,66	1,955950	
19,998000	0,66	1,951870	
20,009000	0,66	1,948170	
20,020000	0,66	1,942320	
20,031000	0,66	1,932680	
20,042000	0,66	1,922670	
20,053000	0,66	1,913720	
20,064000	0,66	1,901500	
20,075000	0,66	1,894130	
20,086000	0,66	1,887910	
20,097000	0,66	1,875960	
20,108000	0,66	1,869960	
20,119000	0,66	1,870010	
20,130000	0,66	1,871730	
20,141000	0,66	1,875380	
20,152000	0,66	1,883320	
20,163000	0,66	1,894610	
20,174000	0,66	1,908420	
20,185000	0,66	1,926790	
20,196000	0,66	1,948910	
20,207000	0,66	1,971580	
20,218000	0,66	1,991290	
20,229000	0,66	2,006240	
20,240000	0,66	2,010140	
20,251000	0,66	2,004410	
20,262000	0,66	1,990360	
20,273000	0,66	1,968610	
20,284000	0,66	1,942550	
20,295000	0,66	1,915520	
20,306000	0,66	1,889430	
20,317000	0,66	1,866710	
20,328000	0,66	1,847000	
20,339000	0,66	1,829780	
20,350000	0,66	1,816580	
20,361000	0,66	1,806050	
20,372000	0,66	1,798800	
20,383000	0,66	1,788180	
20,394000	0,66	1,783000	
20,405000	0,66	1,775640	
20,416000	0,66	1,770180	
20,427000	0,66	1,761500	
20,438000	0,66	1,754090	
20,449000	0,66	1,750600	
20,460000	0,66	1,744710	
20,471000	0,66	1,740700	
20,482000	0,66	1,737720	
20,493000	0,66	1,734480	
20,504000	0,66	1,731220	
20,515000	0,66	1,725770	
20,526000	0,66	1,720290	
20,537000	0,66	1,719130	
20,548000	0,66	1,716830	
20,559000	0,66	1,714490	
20,570000	0,66	1,715560	
20,581000	0,66	1,716440	
20,592000	0,66	1,715760	
20,603000	0,66	1,713970	
20,614000	0,66	1,713030	
20,625000	0,66	1,711720	
20,636000	0,66	1,708740	
20,647000	0,66	1,704820	
20,658000	0,66	1,697460	
20,669000	0,66	1,686700	
20,680000	0,66	1,676000	
20,691000	0,66	1,669680	
20,702000	0,66	1,665400	
20,713000	0,66	1,658520	
20,724000	0,66	1,652190	
20,735000	0,66	1,644290	
20,746000	0,66	1,639340	
20,757000	0,66	1,637670	
20,768000	0,66	1,632730	
20,779000	0,66	1,626400	
20,790000	0,66	1,621490	
20,801000	0,66	1,619110	
20,812000	0,66	1,614020	
20,823000	0,66	1,611060	
20,834000	0,66	1,610140	
20,845000	0,66	1,609200	
20,856000	0,66	1,609640	
20,867000	0,66	1,611180	
20,878000	0,66	1,609320	
20,889000	0,66	1,610430	
20,900000	0,66	1,612280	
20,911000	0,66	1,615330	
20,922000	0,66	1,618120	
20,933000	0,66	1,620000	
20,944000	0,66	1,625660	
20,955000	0,66	1,631330	
20,966000	0,66	1,638220	
20,977000	0,66	1,643620	
20,988000	0,66	1,651180	
20,999000	0,66	1,657270	
21,010000	0,66	1,659520	
21,021000	0,66	1,663040	
21,032000	0,66	1,667870	
21,043000	0,66	1,673360	
21,054000	0,66	1,680140	
21,065000	0,66	1,685920	
21,076000	0,66	1,694280	
21,087000	0,66	1,706560	
21,098000	0,66	1,719940	
21,109000	0,66	1,738760	
21,120000	0,66	1,761740	
21,131000	0,66	1,784830	
21,142000	0,66	1,804110	
21,153000	0,66	1,816300	
21,164000	0,66	1,821110	
21,175000	0,66	1,820990	
21,186000	0,66	1,816470	
21,197000	0,66	1,807870	
21,208000	0,66	1,791240	
21,219000	0,66	1,771040	
21,230000	0,66	1,751850	
21,241000	0,66	1,734940	
21,252000	0,66	1,720380	
21,263000	0,66	1,706900	
21,274000	0,66	1,698160	
21,285000	0,66	1,690900	
21,296000	0,66	1,678300	
21,307000	0,66	1,665440	
21,318000	0,66	1,656200	
21,329000	0,66	1,649290	
21,340000	0,66	1,642860	
21,351000	0,66	1,637350	
21,362000	0,66	1,635970	
21,373000	0,66	1,635610	
21,384000	0,66	1,636790	
21,395000	0,66	1,636520	
21,406000	0,66	1,637140	
21,417000	0,66	1,643100	
21,428000	0,66	1,647680	
21,439000	0,66	1,653860	
21,450000	0,66	1,660150	
21,461000	0,66	1,670840	
21,472000	0,66	1,684430	
21,483000	0,66	1,698700	
21,494000	0,66	1,711090	
21,505000	0,66	1,720190	
21,516000	0,66	1,728740	
21,527000	0,66	1,734250	
21,538000	0,66	1,733620	
21,549000	0,66	1,729860	
21,560000	0,66	1,725360	
21,571000	0,66	1,717640	
21,582000	0,66	1,710560	
21,593000	0,66	1,701730	
21,604000	0,66	1,696740	
21,615000	0,66	1,695530	
21,626000	0,66	1,692550	
21,637000	0,66	1,691850	
21,648000	0,66	1,689280	
21,659000	0,66	1,682450	
21,670000	0,66	1,680480	
21,681000	0,66	1,681760	
21,692000	0,66	1,680070	
21,703000	0,66	1,676340	
21,714000	0,66	1,672560	
21,725000	0,66	1,672960	
21,736000	0,66	1,671590	
21,747000	0,66	1,669230	
21,758000	0,66	1,669660	
21,769000	0,66	1,671910	
21,780000	0,66	1,672870	
21,791000	0,66	1,673630	
21,802000	0,66	1,673630	
21,813000	0,66	1,674230	
21,824000	0,66	1,674810	
21,835000	0,66	1,681940	
21,846000	0,66	1,686170	
21,857000	0,66	1,688400	
21,868000	0,66	1,690700	
21,879000	0,66	1,693530	
21,890000	0,66	1,694760	
21,901000	0,66	1,694690	
21,912000	0,66	1,694540	
21,923000	0,66	1,697100	
21,934000	0,66	1,700770	
21,945000	0,66	1,700900	
21,956000	0,66	1,700330	
21,967000	0,66	1,701990	
21,978000	0,66	1,703390	
21,989000	0,66	1,704770	
22,000000	0,66	1,707370	
22,011000	0,66	1,709890	
22,022000	0,66	1,713130	
22,033000	0,66	1,714040	
22,044000	0,66	1,710310	
22,055000	0,66	1,706460	
22,066000	0,66	1,703100	
22,077000	0,66	1,702790	
22,088000	0,66	1,703130	
22,099000	0,66	1,703830	
22,110000	0,66	1,706940	
22,121000	0,66	1,710230	
22,132000	0,66	1,711770	
22,143000	0,66	1,714970	
22,154000	0,66	1,719060	
22,165000	0,66	1,723490	
22,176000	0,66	1,727350	
22,187000	0,66	1,732620	
22,198000	0,66	1,733740	
22,209000	0,66	1,735980	
22,220000	0,66	1,734620	
22,231000	0,66	1,734040	
22,242000	0,66	1,734040	
22,253000	0,66	1,734570	
22,264000	0,66	1,735410	
22,275000	0,66	1,737120	
22,286000	0,66	1,739150	
22,297000	0,66	1,738960	
22,308000	0,66	1,739640	
22,319000	0,66	1,742390	
22,330000	0,66	1,744580	
22,341000	0,66	1,750030	
22,352000	0,66	1,753530	
22,363000	0,66	1,757640	
22,374000	0,66	1,758810	
22,385000	0,66	1,764590	
22,396000	0,66	1,773780	
22,407000	0,66	1,783570	
22,418000	0,66	1,793500	
22,429000	0,66	1,802720	
22,440000	0,66	1,813540	
22,451000	0,66	1,825230	
22,462000	0,66	1,831510	
22,473000	0,66	1,835900	
22,484000	0,66	1,838800	
22,495000	0,66	1,839120	
22,506000	0,66	1,831960	
22,517000	0,66	1,825220	
22,528000	0,66	1,820850	
22,539000	0,66	1,816650	
22,550000	0,66	1,810410	
22,561000	0,66	1,803830	
22,572000	0,66	1,800890	
22,583000	0,66	1,796030	
22,594000	0,66	1,792210	
22,605000	0,66	1,792780	
22,616000	0,66	1,796610	
22,627000	0,66	1,801220	
22,638000	0,66	1,813990	
22,649000	0,66	1,839940	
22,660000	0,66	1,878040	
22,671000	0,66	1,934590	
22,682000	0,66	2,018920	
22,693000	0,66	2,136790	
22,704000	0,66	2,297170	
22,715000	0,66	2,504060	
22,726000	0,66	2,762970	
22,737000	0,66	3,075400	
22,748000	0,66	3,436340	
22,759000	0,66	3,837930	
22,770000	0,66	4,259340	
22,781000	0,66	4,666870	
22,792000	0,66	5,031570	
22,803000	0,66	5,321200	
22,814000	0,66	5,505640	
22,825000	0,66	5,565490	
22,836000	0,66	5,494220	
22,847000	0,66	5,312510	
22,858000	0,66	5,040510	
22,869000	0,66	4,713690	
22,880000	0,66	4,360110	
22,891000	0,66	4,013300	
22,902000	0,66	3,686740	
22,913000	0,66	3,395890	
22,924000	0,66	3,147100	
22,935000	0,66	2,940580	
22,946000	0,66	2,768080	
22,957000	0,66	2,624460	
22,968000	0,66	2,510530	
22,979000	0,66	2,415630	
22,990000	0,66	2,335520	
23,001000	0,66	2,267670	
23,012000	0,66	2,208570	
23,023000	0,66	2,158930	
23,034000	0,66	2,115850	
23,045000	0,66	2,077540	
23,056000	0,66	2,045460	
23,067000	0,66	2,019250	
23,078000	0,66	1,994300	
23,089000	0,66	1,977100	
23,100000	0,66	1,965160	
23,111000	0,66	1,950750	
23,122000	0,66	1,944860	
23,133000	0,66	1,941620	
23,144000	0,66	1,942430	
23,155000	0,66	1,943370	
23,166000	0,66	1,941420	
23,177000	0,66	1,940960	
23,188000	0,66	1,940000	
23,199000	0,66	1,935850	
23,210000	0,66	1,932440	
23,221000	0,66	1,930160	
23,232000	0,66	1,926920	
23,243000	0,66	1,918700	
23,254000	0,66	1,909700	
23,265000	0,66	1,903130	
23,276000	0,66	1,896320	
23,287000	0,66	1,889900	
23,298000	0,66	1,883640	
23,309000	0,66	1,879940	
23,320000	0,66	1,880320	
23,331000	0,66	1,882590	
23,342000	0,66	1,886060	
23,353000	0,66	1,892000	
23,364000	0,66	1,899960	
23,375000	0,66	1,911630	
23,386000	0,66	1,926750	
23,397000	0,66	1,943340	
23,408000	0,66	1,958570	
23,419000	0,66	1,968200	
23,430000	0,66	1,977960	
23,441000	0,66	1,993180	
23,452000	0,66	2,008190	
23,463000	0,66	2,017630	
23,474000	0,66	2,026030	
23,485000	0,66	2,037010	
23,496000	0,66	2,049080	
23,507000	0,66	2,061380	
23,518000	0,66	2,075520	
23,529000	0,66	2,088940	
23,540000	0,66	2,098690	
23,551000	0,66	2,109260	
23,562000	0,66	2,113710	
23,573000	0,66	2,116490	
23,584000	0,66	2,119270	
23,595000	0,66	2,119040	
23,606000	0,66	2,119070	
23,617000	0,66	2,119250	
23,628000	0,66	2,120290	
23,639000	0,66	2,126590	
23,650000	0,66	2,142260	
23,661000	0,66	2,165690	
23,672000	0,66	2,200520	
23,683000	0,66	2,244450	
23,694000	0,66	2,302100	
23,705000	0,66	2,372630	
23,716000	0,66	2,453730	
23,727000	0,66	2,544860	
23,738000	0,66	2,646960	
23,749000	0,66	2,759450	
23,760000	0,66	2,879730	
23,771000	0,66	3,006470	
23,782000	0,66	3,140840	
23,793000	0,66	3,280530	
23,804000	0,66	3,429540	
23,815000	0,66	3,598590	
23,826000	0,66	3,802300	
23,837000	0,66	4,057230	
23,848000	0,66	4,384190	
23,859000	0,66	4,799430	
23,870000	0,66	5,298160	
23,881000	0,66	5,861020	
23,892000	0,66	6,463490	
23,903000	0,66	7,052850	
23,914000	0,66	7,574500	
23,925000	0,66	7,979220	
23,936000	0,66	8,229540	
23,947000	0,66	8,318570	
23,958000	0,66	8,266110	
23,969000	0,66	8,102630	
23,980000	0,66	7,871340	
23,991000	0,66	7,602640	
24,002000	0,66	7,331140	
24,013000	0,66	7,083540	
24,024000	0,66	6,884040	
24,035000	0,66	6,760170	
24,046000	0,66	6,758350	
24,057000	0,66	6,995570	
24,068000	0,66	7,772660	
24,079000	0,66	9,668440	
24,090000	0,66	13,483960	
24,101000	0,66	20,432270	
24,112000	0,66	32,146950	
24,123000	0,66	51,634120	
24,134000	0,66	83,509940	
24,145000	0,66	131,391770	
24,156000	0,66	190,761250	
24,167000	0,66	252,674740	
24,178000	0,66	308,298210	
24,189000	0,66	352,775910	
24,200000	0,66	384,518020	
24,211000	0,66	404,404060	
24,222000	0,66	414,178650	
24,233000	0,66	415,774770	
24,244000	0,66	411,044130	
24,255000	0,66	401,416270	
24,266000	0,66	388,193730	
24,277000	0,66	372,313900	
24,288000	0,66	354,667020	
24,299000	0,66	335,715330	
24,310000	0,66	316,004250	
24,321000	0,66	295,869490	
24,332000	0,66	275,668140	
24,343000	0,66	255,501550	
24,354000	0,66	235,729870	
24,365000	0,66	216,455170	
24,376000	0,66	197,830970	
24,387000	0,66	180,072220	
24,398000	0,66	163,267570	
24,409000	0,66	147,526620	
24,420000	0,66	132,952760	
24,431000	0,66	119,634110	
24,442000	0,66	107,617530	
24,453000	0,66	96,853290	
24,464000	0,66	87,272310	
24,475000	0,66	78,809740	
24,486000	0,66	71,354850	
24,497000	0,66	64,763170	
24,508000	0,66	58,871070	
24,519000	0,66	53,540860	
24,530000	0,66	48,677060	
24,541000	0,66	44,186280	
24,552000	0,66	40,029040	
24,563000	0,66	36,163150	
24,574000	0,66	32,561960	
24,585000	0,66	29,238790	
24,596000	0,66	26,199760	
24,607000	0,66	23,451200	
24,618000	0,66	20,987430	
24,629000	0,66	18,791960	
24,640000	0,66	16,863170	
24,651000	0,66	15,183650	
24,662000	0,66	13,737200	
24,673000	0,66	12,494510	
24,684000	0,66	11,426250	
24,695000	0,66	10,511180	
24,706000	0,66	9,726490	
24,717000	0,66	9,053140	
24,728000	0,66	8,471980	
24,739000	0,66	7,966860	
24,750000	0,66	7,527960	
24,761000	0,66	7,138380	
24,772000	0,66	6,790420	
24,783000	0,66	6,477390	
24,794000	0,66	6,186260	
24,805000	0,66	5,912550	
24,816000	0,66	5,650210	
24,827000	0,66	5,399090	
24,838000	0,66	5,161870	
24,849000	0,66	4,936240	
24,860000	0,66	4,723210	
24,871000	0,66	4,526390	
24,882000	0,66	4,347000	
24,893000	0,66	4,186590	
24,904000	0,66	4,044890	
24,915000	0,66	3,927500	
24,926000	0,66	3,831290	
24,937000	0,66	3,748010	
24,948000	0,66	3,680060	
24,959000	0,66	3,624750	
24,970000	0,66	3,579180	
24,981000	0,66	3,538060	
24,992000	0,66	3,500390	
25,003000	0,66	3,465310	
25,014000	0,66	3,431780	
25,025000	0,66	3,397190	
25,036000	0,66	3,358080	
25,047000	0,66	3,320290	
25,058000	0,66	3,280030	
25,069000	0,66	3,243010	
25,080000	0,66	3,209220	
25,091000	0,66	3,174740	
25,102000	0,66	3,143530	
25,113000	0,66	3,112940	
25,124000	0,66	3,084320	
25,135000	0,66	3,053790	
25,146000	0,66	3,019540	
25,157000	0,66	2,989470	
25,168000	0,66	2,960760	
25,179000	0,66	2,937500	
25,190000	0,66	2,920090	
25,201000	0,66	2,915270	
25,212000	0,66	2,922890	
25,223000	0,66	2,948010	
25,234000	0,66	2,995580	
25,245000	0,66	3,064730	
25,256000	0,66	3,151820	
25,267000	0,66	3,255980	
25,278000	0,66	3,367170	
25,289000	0,66	3,481240	
25,300000	0,66	3,589020	
25,311000	0,66	3,680820	
25,322000	0,66	3,743670	
25,333000	0,66	3,770730	
25,344000	0,66	3,753290	
25,355000	0,66	3,701070	
25,366000	0,66	3,616120	
25,377000	0,66	3,503450	
25,388000	0,66	3,370070	
25,399000	0,66	3,223690	
25,410000	0,66	3,079580	
25,421000	0,66	2,943580	
25,432000	0,66	2,815850	
25,443000	0,66	2,700910	
25,454000	0,66	2,601440	
25,465000	0,66	2,516080	
25,476000	0,66	2,444720	
25,487000	0,66	2,386260	
25,498000	0,66	2,341630	
25,509000	0,66	2,307140	
25,520000	0,66	2,282380	
25,531000	0,66	2,268300	
25,542000	0,66	2,260640	
25,553000	0,66	2,259060	
25,564000	0,66	2,262570	
25,575000	0,66	2,268700	
25,586000	0,66	2,274030	
25,597000	0,66	2,278990	
25,608000	0,66	2,287600	
25,619000	0,66	2,295950	
25,630000	0,66	2,301530	
25,641000	0,66	2,307610	
25,652000	0,66	2,314090	
25,663000	0,66	2,322210	
25,674000	0,66	2,329360	
25,685000	0,66	2,337810	
25,696000	0,66	2,353770	
25,707000	0,66	2,375710	
25,718000	0,66	2,402240	
25,729000	0,66	2,434420	
25,740000	0,66	2,465470	
25,751000	0,66	2,491680	
25,762000	0,66	2,512670	
25,773000	0,66	2,525620	
25,784000	0,66	2,529460	
25,795000	0,66	2,520380	
25,806000	0,66	2,499410	
25,817000	0,66	2,469530	
25,828000	0,66	2,429880	
25,839000	0,66	2,385700	
25,850000	0,66	2,336820	
25,861000	0,66	2,285490	
25,872000	0,66	2,234410	
25,883000	0,66	2,188170	
25,894000	0,66	2,146320	
25,905000	0,66	2,108110	
25,916000	0,66	2,072540	
25,927000	0,66	2,038250	
25,938000	0,66	2,010520	
25,949000	0,66	1,986400	
25,960000	0,66	1,964880	
25,971000	0,66	1,948040	
25,982000	0,66	1,931330	
25,993000	0,66	1,915230	
26,004000	0,66	1,902140	
26,015000	0,66	1,890410	
26,026000	0,66	1,883930	
26,037000	0,66	1,879880	
26,048000	0,66	1,878270	
26,059000	0,66	1,875350	
26,070000	0,66	1,872600	
26,081000	0,66	1,873290	
26,092000	0,66	1,874820	
26,103000	0,66	1,878790	
26,114000	0,66	1,882300	
26,125000	0,66	1,888470	
26,136000	0,66	1,895500	
26,147000	0,66	1,899510	
26,158000	0,66	1,903710	
26,169000	0,66	1,908760	
26,180000	0,66	1,915420	
26,191000	0,66	1,921300	
26,202000	0,66	1,926740	
26,213000	0,66	1,932080	
26,224000	0,66	1,933010	
26,235000	0,66	1,932740	
26,246000	0,66	1,930210	
26,257000	0,66	1,924430	
26,268000	0,66	1,914910	
26,279000	0,66	1,902100	
26,290000	0,66	1,886950	
26,301000	0,66	1,870660	
26,312000	0,66	1,852620	
26,323000	0,66	1,836260	
26,334000	0,66	1,819380	
26,345000	0,66	1,797290	
26,356000	0,66	1,780310	
26,367000	0,66	1,769190	
26,378000	0,66	1,759030	
26,389000	0,66	1,753050	
26,400000	0,66	1,748050	
26,411000	0,66	1,746640	
26,422000	0,66	1,745440	
26,433000	0,66	1,744130	
26,444000	0,66	1,746530	
26,455000	0,66	1,750920	
26,466000	0,66	1,755510	
26,477000	0,66	1,762670	
26,488000	0,66	1,769690	
26,499000	0,66	1,780840	
26,510000	0,66	1,793850	
26,521000	0,66	1,804170	
26,532000	0,66	1,812830	
26,543000	0,66	1,819750	
26,554000	0,66	1,823180	
26,565000	0,66	1,825510	
26,576000	0,66	1,822830	
26,587000	0,66	1,817640	
26,598000	0,66	1,809580	
26,609000	0,66	1,797890	
26,620000	0,66	1,783480	
26,631000	0,66	1,769600	
26,642000	0,66	1,759000	
26,653000	0,66	1,746850	
26,664000	0,66	1,735010	
26,675000	0,66	1,726240	
26,686000	0,66	1,721320	
26,697000	0,66	1,716740	
26,708000	0,66	1,714780	
26,719000	0,66	1,715360	
26,730000	0,66	1,717720	
26,741000	0,66	1,719800	
26,752000	0,66	1,724130	
26,763000	0,66	1,723680	
26,774000	0,66	1,719170	
26,785000	0,66	1,719800	
26,796000	0,66	1,719720	
26,807000	0,66	1,713700	
26,818000	0,66	1,706060	
26,829000	0,66	1,698370	
26,840000	0,66	1,692200	
26,851000	0,66	1,686960	
26,862000	0,66	1,683190	
26,873000	0,66	1,680310	
26,884000	0,66	1,678290	
26,895000	0,66	1,681090	
26,906000	0,66	1,685490	
26,917000	0,66	1,690890	
26,928000	0,66	1,700280	
26,939000	0,66	1,714190	
26,950000	0,66	1,727450	
26,961000	0,66	1,739720	
26,972000	0,66	1,750370	
26,983000	0,66	1,757970	
26,994000	0,66	1,761780	
27,005000	0,66	1,760720	
27,016000	0,66	1,754990	
27,027000	0,66	1,744970	
27,038000	0,66	1,732570	
27,049000	0,66	1,720690	
27,060000	0,66	1,705400	
27,071000	0,66	1,692180	
27,082000	0,66	1,684190	
27,093000	0,66	1,673190	
27,104000	0,66	1,663610	
27,115000	0,66	1,658390	
27,126000	0,66	1,650500	
27,137000	0,66	1,647370	
27,148000	0,66	1,646010	
27,159000	0,66	1,646030	
27,170000	0,66	1,645410	
27,181000	0,66	1,645280	
27,192000	0,66	1,645070	
27,203000	0,66	1,645750	
27,214000	0,66	1,648980	
27,225000	0,66	1,652120	
27,236000	0,66	1,653080	
27,247000	0,66	1,653900	
27,258000	0,66	1,653550	
27,269000	0,66	1,651770	
27,280000	0,66	1,652380	
27,291000	0,66	1,651490	
27,302000	0,66	1,648260	
27,313000	0,66	1,643730	
27,324000	0,66	1,637970	
27,335000	0,66	1,630580	
27,346000	0,66	1,626450	
27,357000	0,66	1,627250	
27,368000	0,66	1,625640	
27,379000	0,66	1,627610	
27,390000	0,66	1,630300	
27,401000	0,66	1,628910	
27,412000	0,66	1,629220	
27,423000	0,66	1,628820	
27,434000	0,66	1,631310	
27,445000	0,66	1,631480	
27,456000	0,66	1,631480	
27,467000	0,66	1,629230	
27,478000	0,66	1,629470	
27,489000	0,66	1,630700	
27,500000	0,66	1,632520	
27,511000	0,66	1,636930	
27,522000	0,66	1,643090	
27,533000	0,66	1,648650	
27,544000	0,66	1,650960	
27,555000	0,66	1,649640	
27,566000	0,66	1,648550	
27,577000	0,66	1,650140	
27,588000	0,66	1,649660	
27,599000	0,66	1,645380	
27,610000	0,66	1,640230	
27,621000	0,66	1,635200	
27,632000	0,66	1,632120	
27,643000	0,66	1,629960	
27,654000	0,66	1,626830	
27,665000	0,66	1,625990	
27,676000	0,66	1,625900	
27,687000	0,66	1,622140	
27,698000	0,66	1,619780	
27,709000	0,66	1,618510	
27,720000	0,66	1,615230	
27,731000	0,66	1,612480	
27,742000	0,66	1,615550	
27,753000	0,66	1,620450	
27,764000	0,66	1,619080	
27,775000	0,66	1,615730	
27,786000	0,66	1,616000	
27,797000	0,66	1,616260	
27,808000	0,66	1,618440	
27,819000	0,66	1,623200	
27,830000	0,66	1,625570	
27,841000	0,66	1,626560	
27,852000	0,66	1,624160	
27,863000	0,66	1,623120	
27,874000	0,66	1,625410	
27,885000	0,66	1,627140	
27,896000	0,66	1,630080	
27,907000	0,66	1,631640	
27,918000	0,66	1,627600	
27,929000	0,66	1,626070	
27,940000	0,66	1,625640	
27,951000	0,66	1,626500	
27,962000	0,66	1,627690	
27,973000	0,66	1,629830	
27,984000	0,66	1,629760	
27,995000	0,66	1,632380	
28,006000	0,66	1,634210	
28,017000	0,66	1,633570	
28,028000	0,66	1,634540	
28,039000	0,66	1,632560	
28,050000	0,66	1,634100	
28,061000	0,66	1,637640	
28,072000	0,66	1,641420	
28,083000	0,66	1,647720	
28,094000	0,66	1,656740	
28,105000	0,66	1,667680	
28,116000	0,66	1,676060	
28,127000	0,66	1,684930	
28,138000	0,66	1,694320	
28,149000	0,66	1,700880	
28,160000	0,66	1,707960	
28,171000	0,66	1,717280	
28,182000	0,66	1,726000	
28,193000	0,66	1,729670	
28,204000	0,66	1,734760	
28,215000	0,66	1,745000	
28,226000	0,66	1,750820	
28,237000	0,66	1,751910	
28,248000	0,66	1,757050	
28,259000	0,66	1,766940	
28,270000	0,66	1,778240	
28,281000	0,66	1,792980	
28,292000	0,66	1,811330	
28,303000	0,66	1,831130	
28,314000	0,66	1,853920	
28,325000	0,66	1,878120	
28,336000	0,66	1,903520	
28,347000	0,66	1,932630	
28,358000	0,66	1,967730	
28,369000	0,66	2,006970	
28,380000	0,66	2,051350	
28,391000	0,66	2,101250	
28,402000	0,66	2,154310	
28,413000	0,66	2,210170	
28,424000	0,66	2,272180	
28,435000	0,66	2,342050	
28,446000	0,66	2,418550	
28,457000	0,66	2,511250	
28,468000	0,66	2,615350	
28,479000	0,66	2,730260	
28,490000	0,66	2,859120	
28,501000	0,66	2,999530	
28,512000	0,66	3,148630	
28,523000	0,66	3,297130	
28,534000	0,66	3,437420	
28,545000	0,66	3,563020	
28,556000	0,66	3,665840	
28,567000	0,66	3,740240	
28,578000	0,66	3,787340	
28,589000	0,66	3,803770	
28,600000	0,66	3,796300	
28,611000	0,66	3,770410	
28,622000	0,66	3,736830	
28,633000	0,66	3,705960	
28,644000	0,66	3,684430	
28,655000	0,66	3,677030	
28,666000	0,66	3,683370	
28,677000	0,66	3,703270	
28,688000	0,66	3,737400	
28,699000	0,66	3,784360	
28,710000	0,66	3,832680	
28,721000	0,66	3,882820	
28,732000	0,66	3,929070	
28,743000	0,66	3,971860	
28,754000	0,66	4,002520	
28,765000	0,66	4,016070	
28,776000	0,66	4,015310	
28,787000	0,66	3,995290	
28,798000	0,66	3,958930	
28,809000	0,66	3,906320	
28,820000	0,66	3,840420	
28,831000	0,66	3,761660	
28,842000	0,66	3,672560	
28,853000	0,66	3,574010	
28,864000	0,66	3,468260	
28,875000	0,66	3,363410	
28,886000	0,66	3,262500	
28,897000	0,66	3,164700	
28,908000	0,66	3,071650	
28,919000	0,66	2,985110	
28,930000	0,66	2,906830	
28,941000	0,66	2,840250	
28,952000	0,66	2,787120	
28,963000	0,66	2,740620	
28,974000	0,66	2,698680	
28,985000	0,66	2,661400	
28,996000	0,66	2,626030	
29,007000	0,66	2,596080	
29,018000	0,66	2,567370	
29,029000	0,66	2,536640	
29,040000	0,66	2,505690	
29,051000	0,66	2,471320	
29,062000	0,66	2,433460	
29,073000	0,66	2,397740	
29,084000	0,66	2,365370	
29,095000	0,66	2,330240	
29,106000	0,66	2,302740	
29,117000	0,66	2,279080	
29,128000	0,66	2,257180	
29,139000	0,66	2,236820	
29,150000	0,66	2,217960	
29,161000	0,66	2,201380	
29,172000	0,66	2,183480	
29,183000	0,66	2,172760	
29,194000	0,66	2,167500	
29,205000	0,66	2,163760	
29,216000	0,66	2,159180	
29,227000	0,66	2,155700	
29,238000	0,66	2,159650	
29,249000	0,66	2,166500	
29,260000	0,66	2,179890	
29,271000	0,66	2,198190	
29,282000	0,66	2,223290	
29,293000	0,66	2,251150	
29,304000	0,66	2,283990	
29,315000	0,66	2,320770	
29,326000	0,66	2,356760	
29,337000	0,66	2,389770	
29,348000	0,66	2,419320	
29,359000	0,66	2,443820	
29,370000	0,66	2,456730	
29,381000	0,66	2,458050	
29,392000	0,66	2,448870	
29,403000	0,66	2,429940	
29,414000	0,66	2,400110	
29,425000	0,66	2,365770	
29,436000	0,66	2,327240	
29,447000	0,66	2,287120	
29,458000	0,66	2,247760	
29,469000	0,66	2,209560	
29,480000	0,66	2,171480	
29,491000	0,66	2,138400	
29,502000	0,66	2,109520	
29,513000	0,66	2,082480	
29,524000	0,66	2,059930	
29,535000	0,66	2,039340	
29,546000	0,66	2,021420	
29,557000	0,66	2,004560	
29,568000	0,66	1,987370	
29,579000	0,66	1,973520	
29,590000	0,66	1,960100	
29,601000	0,66	1,947060	
29,612000	0,66	1,940460	
29,623000	0,66	1,933690	
29,634000	0,66	1,925210	
29,645000	0,66	1,916960	
29,656000	0,66	1,910630	
29,667000	0,66	1,907600	
29,678000	0,66	1,900490	
29,689000	0,66	1,894240	
29,700000	0,66	1,892250	
29,711000	0,66	1,889670	
29,722000	0,66	1,888050	
29,733000	0,66	1,884450	
29,744000	0,66	1,880890	
29,755000	0,66	1,879100	
29,766000	0,66	1,880090	
29,777000	0,66	1,877770	
29,788000	0,66	1,875370	
29,799000	0,66	1,872020	
29,810000	0,66	1,868060	
29,821000	0,66	1,860870	
29,832000	0,66	1,856090	
29,843000	0,66	1,855410	
29,854000	0,66	1,853070	
29,865000	0,66	1,855110	
29,876000	0,66	1,854060	
29,887000	0,66	1,853160	
29,898000	0,66	1,850520	
29,909000	0,66	1,849310	
29,920000	0,66	1,844470	
29,931000	0,66	1,841020	
29,942000	0,66	1,838590	
29,953000	0,66	1,834770	
29,964000	0,66	1,833200	
29,975000	0,66	1,828540	
29,986000	0,66	1,823720	
29,997000	0,66	1,818540	
30,008000	0,66	1,817380	
30,019000	0,66	1,814490	
30,030000	0,66	1,812840	
30,041000	0,66	1,810980	
30,052000	0,66	1,809280	
30,063000	0,66	1,807220	
30,074000	0,66	1,809080	
30,085000	0,66	1,811950	
30,096000	0,66	1,813010	
30,107000	0,66	1,815130	
30,118000	0,66	1,820930	
30,129000	0,66	1,826070	
30,140000	0,66	1,832810	
30,151000	0,66	1,839490	
30,162000	0,66	1,847190	
30,173000	0,66	1,856890	
30,184000	0,66	1,867000	
30,195000	0,66	1,877740	
30,206000	0,66	1,885080	
30,217000	0,66	1,890010	
30,228000	0,66	1,892800	
30,239000	0,66	1,896270	
30,250000	0,66	1,893750	
30,261000	0,66	1,888230	
30,272000	0,66	1,883410	
30,283000	0,66	1,876050	
30,294000	0,66	1,867770	
30,305000	0,66	1,859260	
30,316000	0,66	1,853190	
30,327000	0,66	1,848090	
30,338000	0,66	1,843330	
30,349000	0,66	1,839430	
30,360000	0,66	1,833600	
30,371000	0,66	1,828310	
30,382000	0,66	1,825220	
30,393000	0,66	1,823690	
30,404000	0,66	1,822300	
30,415000	0,66	1,820660	
30,426000	0,66	1,820940	
30,437000	0,66	1,822460	
30,448000	0,66	1,823940	
30,459000	0,66	1,823620	
30,470000	0,66	1,830400	
30,481000	0,66	1,840950	
30,492000	0,66	1,849990	
30,503000	0,66	1,855100	
30,514000	0,66	1,861140	
30,525000	0,66	1,871430	
30,536000	0,66	1,877580	
30,547000	0,66	1,882030	
30,558000	0,66	1,883010	
30,569000	0,66	1,882280	
30,580000	0,66	1,876400	
30,591000	0,66	1,869500	
30,602000	0,66	1,863770	
30,613000	0,66	1,859480	
30,624000	0,66	1,854230	
30,635000	0,66	1,852040	
30,646000	0,66	1,849490	
30,657000	0,66	1,845410	
30,668000	0,66	1,847230	
30,679000	0,66	1,847990	
30,690000	0,66	1,851290	
30,701000	0,66	1,852690	
30,712000	0,66	1,852590	
30,723000	0,66	1,851430	
30,734000	0,66	1,849670	
30,745000	0,66	1,847510	
30,756000	0,66	1,843480	
30,767000	0,66	1,841030	
30,778000	0,66	1,841660	
30,789000	0,66	1,838920	
30,800000	0,66	1,837450	
30,811000	0,66	1,836620	
30,822000	0,66	1,832780	
30,833000	0,66	1,826820	
30,844000	0,66	1,826380	
30,855000	0,66	1,824970	
30,866000	0,66	1,822180	
30,877000	0,66	1,818890	
30,888000	0,66	1,813770	
30,899000	0,66	1,812820	
30,910000	0,66	1,810060	
30,921000	0,66	1,807680	
30,932000	0,66	1,807900	
30,943000	0,66	1,808000	
30,954000	0,66	1,807480	
30,965000	0,66	1,806260	
30,976000	0,66	1,803970	
30,987000	0,66	1,804730	
30,998000	0,66	1,806200	
31,009000	0,66	1,804800	
31,020000	0,66	1,802550	
31,031000	0,66	1,803010	
31,042000	0,66	1,805310	
31,053000	0,66	1,806500	
31,064000	0,66	1,807820	
31,075000	0,66	1,811510	
31,086000	0,66	1,814650	
31,097000	0,66	1,814500	
31,108000	0,66	1,813690	
31,119000	0,66	1,813960	
31,130000	0,66	1,815140	
31,141000	0,66	1,815550	
31,152000	0,66	1,816560	
31,163000	0,66	1,819990	
31,174000	0,66	1,823560	
31,185000	0,66	1,824310	
31,196000	0,66	1,823430	
31,207000	0,66	1,819700	
31,218000	0,66	1,815690	
31,229000	0,66	1,816620	
31,240000	0,66	1,815120	
31,251000	0,66	1,813170	
31,262000	0,66	1,813290	
31,273000	0,66	1,810450	
31,284000	0,66	1,807450	
31,295000	0,66	1,807410	
31,306000	0,66	1,805560	
31,317000	0,66	1,804800	
31,328000	0,66	1,802510	
31,339000	0,66	1,802580	
31,350000	0,66	1,798960	
31,361000	0,66	1,798380	
31,372000	0,66	1,797410	
31,383000	0,66	1,797360	
31,394000	0,66	1,799160	
31,405000	0,66	1,799210	
31,416000	0,66	1,798680	
31,427000	0,66	1,794240	
31,438000	0,66	1,794500	
31,449000	0,66	1,796610	
31,460000	0,66	1,795860	
31,471000	0,66	1,798430	
31,482000	0,66	1,801190	
31,493000	0,66	1,803560	
31,504000	0,66	1,803940	
31,515000	0,66	1,802530	
31,526000	0,66	1,802780	
31,537000	0,66	1,799230	
31,548000	0,66	1,797990	
31,559000	0,66	1,798860	
31,570000	0,66	1,800230	
31,581000	0,66	1,800300	
31,592000	0,66	1,797140	
31,603000	0,66	1,795070	
31,614000	0,66	1,793120	
31,625000	0,66	1,792620	
31,636000	0,66	1,791400	
31,647000	0,66	1,792930	
31,658000	0,66	1,796630	
31,669000	0,66	1,797380	
31,680000	0,66	1,794900	
31,691000	0,66	1,789980	
31,702000	0,66	1,788060	
31,713000	0,66	1,788480	
31,724000	0,66	1,787650	
31,735000	0,66	1,787850	
31,746000	0,66	1,787140	
31,757000	0,66	1,785500	
31,768000	0,66	1,784260	
31,779000	0,66	1,783480	
31,790000	0,66	1,783670	
31,801000	0,66	1,782780	
31,812000	0,66	1,782110	
31,823000	0,66	1,779750	
31,834000	0,66	1,778240	
31,845000	0,66	1,777820	
31,856000	0,66	1,777690	
31,867000	0,66	1,776870	
31,878000	0,66	1,776080	
31,889000	0,66	1,776100	
31,900000	0,66	1,778650	
31,911000	0,66	1,777280	
31,922000	0,66	1,775120	
31,933000	0,66	1,775630	
31,944000	0,66	1,774300	
31,955000	0,66	1,773250	
31,966000	0,66	1,771680	
31,977000	0,66	1,770370	
31,988000	0,66	1,768940	
31,999000	0,66	1,767840	
32,010000	0,66	1,767160	
32,021000	0,66	1,770320	
32,032000	0,66	1,771900	
32,043000	0,66	1,770290	
32,054000	0,66	1,766720	
32,065000	0,66	1,765640	
32,076000	0,66	1,764170	
32,087000	0,66	1,764210	
32,098000	0,66	1,764130	
32,109000	0,66	1,765170	
32,120000	0,66	1,764770	
32,131000	0,66	1,763370	
32,142000	0,66	1,763770	
32,153000	0,66	1,762490	
32,164000	0,66	1,763240	
32,175000	0,66	1,764400	
32,186000	0,66	1,762690	
32,197000	0,66	1,765390	
32,208000	0,66	1,766100	
32,219000	0,66	1,767660	
32,230000	0,66	1,766610	
32,241000	0,66	1,765730	
32,252000	0,66	1,763830	
32,263000	0,66	1,761310	
32,274000	0,66	1,759130	
32,285000	0,66	1,757640	
32,296000	0,66	1,755580	
32,307000	0,66	1,754000	
32,318000	0,66	1,753810	
32,329000	0,66	1,754550	
32,340000	0,66	1,755460	
32,351000	0,66	1,755060	
32,362000	0,66	1,757220	
32,373000	0,66	1,756330	
32,384000	0,66	1,754940	
32,395000	0,66	1,753310	
32,406000	0,66	1,752650	
32,417000	0,66	1,753270	
32,428000	0,66	1,752920	
32,439000	0,66	1,753730	
32,450000	0,66	1,754920	
32,461000	0,66	1,754250	
32,472000	0,66	1,753900	
32,483000	0,66	1,756630	
32,494000	0,66	1,757890	
32,505000	0,66	1,755790	
32,516000	0,66	1,754220	
32,527000	0,66	1,752410	
32,538000	0,66	1,750930	
32,549000	0,66	1,749790	
32,560000	0,66	1,748770	
32,571000	0,66	1,748680	
32,582000	0,66	1,749200	
32,593000	0,66	1,749710	
32,604000	0,66	1,750280	
32,615000	0,66	1,751390	
32,626000	0,66	1,749240	
32,637000	0,66	1,750630	
32,648000	0,66	1,750830	
32,659000	0,66	1,749690	
32,670000	0,66	1,750480	
32,681000	0,66	1,750850	
32,692000	0,66	1,747080	
32,703000	0,66	1,745970	
32,714000	0,66	1,747580	
32,725000	0,66	1,747800	
32,736000	0,66	1,748040	
32,747000	0,66	1,748360	
32,758000	0,66	1,745470	
32,769000	0,66	1,745330	
32,780000	0,66	1,745730	
32,791000	0,66	1,746940	
32,802000	0,66	1,744380	
32,813000	0,66	1,744510	
32,824000	0,66	1,745080	
32,835000	0,66	1,742860	
32,846000	0,66	1,740860	
32,857000	0,66	1,741480	
32,868000	0,66	1,743710	
32,879000	0,66	1,743460	
32,890000	0,66	1,746590	
32,901000	0,66	1,747610	
32,912000	0,66	1,747270	
32,923000	0,66	1,745040	
32,934000	0,66	1,743290	
32,945000	0,66	1,740360	
32,956000	0,66	1,738320	
32,967000	0,66	1,738740	
32,978000	0,66	1,738440	
32,989000	0,66	1,739800	
33,000000	0,66	1,743470	
33,011000	0,66	1,743250	
33,022000	0,66	1,743220	
33,033000	0,66	1,744400	
33,044000	0,66	1,743840	
33,055000	0,66	1,743470	
33,066000	0,66	1,746350	
33,077000	0,66	1,751020	
33,088000	0,66	1,751930	
33,099000	0,66	1,750870	
33,110000	0,66	1,750910	
33,121000	0,66	1,750690	
33,132000	0,66	1,750620	
33,143000	0,66	1,747990	
33,154000	0,66	1,745670	
33,165000	0,66	1,748130	
33,176000	0,66	1,749580	
33,187000	0,66	1,748870	
33,198000	0,66	1,748910	
33,209000	0,66	1,749010	
33,220000	0,66	1,746980	
33,231000	0,66	1,748050	
33,242000	0,66	1,752600	
33,253000	0,66	1,753190	
33,264000	0,66	1,750990	
33,275000	0,66	1,748260	
33,286000	0,66	1,749510	
33,297000	0,66	1,751310	
33,308000	0,66	1,751570	
33,319000	0,66	1,752520	
33,330000	0,66	1,753630	
33,341000	0,66	1,754280	
33,352000	0,66	1,757570	
33,363000	0,66	1,758860	
33,374000	0,66	1,762260	
33,385000	0,66	1,760930	
33,396000	0,66	1,762170	
33,407000	0,66	1,763500	
33,418000	0,66	1,763050	
33,429000	0,66	1,764070	
33,440000	0,66	1,769230	
33,451000	0,66	1,772070	
33,462000	0,66	1,771060	
33,473000	0,66	1,770050	
33,484000	0,66	1,771610	
33,495000	0,66	1,769360	
33,506000	0,66	1,771180	
33,517000	0,66	1,768820	
33,528000	0,66	1,767530	
33,539000	0,66	1,765750	
33,550000	0,66	1,766810	
33,561000	0,66	1,767760	
33,572000	0,66	1,771120	
33,583000	0,66	1,771780	
33,594000	0,66	1,770630	
33,605000	0,66	1,772790	
33,616000	0,66	1,771720	
33,627000	0,66	1,771580	
33,638000	0,66	1,770570	
33,649000	0,66	1,770600	
33,660000	0,66	1,769040	
33,671000	0,66	1,768870	
33,682000	0,66	1,765760	
33,693000	0,66	1,762630	
33,704000	0,66	1,764030	
33,715000	0,66	1,769140	
33,726000	0,66	1,771020	
33,737000	0,66	1,770040	
33,748000	0,66	1,767290	
33,759000	0,66	1,767680	
33,770000	0,66	1,768920	
33,781000	0,66	1,766610	
33,792000	0,66	1,765410	
33,803000	0,66	1,763800	
33,814000	0,66	1,761380	
33,825000	0,66	1,759970	
33,836000	0,66	1,762060	
33,847000	0,66	1,763830	
33,858000	0,66	1,764030	
33,869000	0,66	1,765800	
33,880000	0,66	1,765590	
33,891000	0,66	1,764920	
33,902000	0,66	1,764240	
33,913000	0,66	1,763560	
33,924000	0,66	1,762160	
33,935000	0,66	1,761010	
33,946000	0,66	1,761290	
33,957000	0,66	1,759580	
33,968000	0,66	1,758500	
33,979000	0,66	1,757500	
33,990000	0,66	1,757280	
34,001000	0,66	1,759430	
34,012000	0,66	1,759900	
34,023000	0,66	1,757270	
34,034000	0,66	1,756910	
34,045000	0,66	1,758340	
34,056000	0,66	1,756120	
34,067000	0,66	1,756290	
34,078000	0,66	1,756560	
34,089000	0,66	1,756770	
34,100000	0,66	1,757200	
34,111000	0,66	1,758990	
34,122000	0,66	1,758750	
34,133000	0,66	1,755060	
34,144000	0,66	1,753770	
34,155000	0,66	1,754510	
34,166000	0,66	1,757470	
34,177000	0,66	1,756820	
34,188000	0,66	1,756440	
34,199000	0,66	1,755510	
34,210000	0,66	1,754240	
34,221000	0,66	1,754770	
34,232000	0,66	1,755190	
34,243000	0,66	1,754380	
34,254000	0,66	1,756510	
34,265000	0,66	1,753280	
34,276000	0,66	1,751460	
34,287000	0,66	1,752160	
34,298000	0,66	1,753010	
34,309000	0,66	1,756320	
34,320000	0,66	1,757310	
34,331000	0,66	1,757650	
34,342000	0,66	1,758010	
34,353000	0,66	1,756710	
34,364000	0,66	1,756700	
34,375000	0,66	1,756670	
34,386000	0,66	1,757930	
34,397000	0,66	1,756530	
34,408000	0,66	1,754950	
34,419000	0,66	1,754760	
34,430000	0,66	1,754220	
34,441000	0,66	1,756150	
34,452000	0,66	1,756670	
34,463000	0,66	1,753450	
34,474000	0,66	1,751610	
34,485000	0,66	1,754150	
34,496000	0,66	1,756920	
34,507000	0,66	1,756470	
34,518000	0,66	1,755570	
34,529000	0,66	1,755710	
34,540000	0,66	1,757000	
34,551000	0,66	1,758980	
34,562000	0,66	1,759540	
34,573000	0,66	1,758790	
34,584000	0,66	1,759240	
34,595000	0,66	1,759430	
34,606000	0,66	1,757130	
34,617000	0,66	1,757100	
34,628000	0,66	1,756300	
34,639000	0,66	1,754240	
34,650000	0,66	1,754690	
34,661000	0,66	1,758650	
34,672000	0,66	1,759140	
34,683000	0,66	1,760660	
34,694000	0,66	1,762120	
34,705000	0,66	1,760940	
34,716000	0,66	1,762900	
34,727000	0,66	1,768250	
34,738000	0,66	1,770580	
34,749000	0,66	1,768030	
34,760000	0,66	1,764920	
34,771000	0,66	1,762620	
34,782000	0,66	1,760200	
34,793000	0,66	1,762860	
34,804000	0,66	1,763360	
34,815000	0,66	1,765850	
34,826000	0,66	1,766280	
34,837000	0,66	1,766620	
34,848000	0,66	1,768070	
34,859000	0,66	1,767080	
34,870000	0,66	1,764810	
34,881000	0,66	1,767850	
34,892000	0,66	1,769910	
34,903000	0,66	1,767340	
34,914000	0,66	1,765760	
34,925000	0,66	1,765290	
34,936000	0,66	1,768020	
34,947000	0,66	1,771640	
34,958000	0,66	1,774750	
34,969000	0,66	1,774580	
34,980000	0,66	1,772720	
34,991000	0,66	1,771970	
35,002000	0,66	1,770960	
35,013000	0,66	1,768350	
35,024000	0,66	1,772070	
35,035000	0,66	1,774080	
35,046000	0,66	1,776040	
35,057000	0,66	1,776190	
35,068000	0,66	1,775500	
35,079000	0,66	1,774810	
35,090000	0,66	1,774660	
35,101000	0,66	1,776850	
35,112000	0,66	1,780320	
35,123000	0,66	1,779700	
35,134000	0,66	1,780670	
35,145000	0,66	1,781890	
35,156000	0,66	1,782080	
35,167000	0,66	1,782730	
35,178000	0,66	1,783440	
35,189000	0,66	1,784820	
35,200000	0,66	1,785930	
35,211000	0,66	1,784050	
35,222000	0,66	1,784880	
35,233000	0,66	1,787010	
35,244000	0,66	1,787710	
35,255000	0,66	1,788830	
35,266000	0,66	1,790030	
35,277000	0,66	1,791930	
35,288000	0,66	1,791970	
35,299000	0,66	1,791280	
35,310000	0,66	1,791160	
35,321000	0,66	1,793810	
35,332000	0,66	1,795770	
35,343000	0,66	1,796150	
35,354000	0,66	1,798020	
35,365000	0,66	1,799840	
35,376000	0,66	1,798230	
35,387000	0,66	1,796180	
35,398000	0,66	1,795760	
35,409000	0,66	1,796790	
35,420000	0,66	1,796620	
35,431000	0,66	1,798000	
35,442000	0,66	1,800700	
35,453000	0,66	1,802110	
35,464000	0,66	1,798200	
35,475000	0,66	1,796210	
35,486000	0,66	1,796610	
35,497000	0,66	1,798690	
35,508000	0,66	1,796950	
35,519000	0,66	1,796050	
35,530000	0,66	1,795940	
35,541000	0,66	1,797390	
35,552000	0,66	1,796380	
35,563000	0,66	1,798500	
35,574000	0,66	1,800600	
35,585000	0,66	1,801810	
35,596000	0,66	1,801000	
35,607000	0,66	1,802140	
35,618000	0,66	1,803410	
35,629000	0,66	1,803740	
35,640000	0,66	1,804500	
35,651000	0,66	1,806300	
35,662000	0,66	1,805930	
35,673000	0,66	1,807790	
35,684000	0,66	1,805980	
35,695000	0,66	1,807660	
35,706000	0,66	1,809770	
35,717000	0,66	1,808830	
35,728000	0,66	1,809300	
35,739000	0,66	1,811760	
35,750000	0,66	1,814320	
35,761000	0,66	1,812530	
35,772000	0,66	1,812930	
35,783000	0,66	1,814120	
35,794000	0,66	1,816770	
35,805000	0,66	1,818280	
35,816000	0,66	1,817370	
35,827000	0,66	1,815930	
35,838000	0,66	1,817850	
35,849000	0,66	1,819680	
35,860000	0,66	1,820870	
35,871000	0,66	1,822650	
35,882000	0,66	1,824320	
35,893000	0,66	1,826040	
35,904000	0,66	1,827170	
35,915000	0,66	1,828770	
35,926000	0,66	1,830970	
35,937000	0,66	1,830130	
35,948000	0,66	1,827930	
35,959000	0,66	1,827450	
35,970000	0,66	1,828700	
35,981000	0,66	1,830580	
35,992000	0,66	1,831880	
36,003000	0,66	1,834890	
36,014000	0,66	1,837470	
36,025000	0,66	1,839720	
36,036000	0,66	1,840480	
36,047000	0,66	1,840480	
36,058000	0,66	1,840680	
36,069000	0,66	1,840610	
36,080000	0,66	1,841230	
36,091000	0,66	1,844770	
36,102000	0,66	1,849810	
36,113000	0,66	1,851580	
36,124000	0,66	1,852700	
36,135000	0,66	1,853290	
36,146000	0,66	1,856520	
36,157000	0,66	1,859090	
36,168000	0,66	1,863270	
36,179000	0,66	1,866950	
36,190000	0,66	1,866500	
36,201000	0,66	1,867080	
36,212000	0,66	1,871020	
36,223000	0,66	1,872780	
36,234000	0,66	1,878370	
36,245000	0,66	1,881490	
36,256000	0,66	1,883840	
36,267000	0,66	1,885090	
36,278000	0,66	1,886200	
36,289000	0,66	1,887210	
36,300000	0,66	1,891760	
36,311000	0,66	1,893680	
36,322000	0,66	1,893860	
36,333000	0,66	1,899550	
36,344000	0,66	1,906930	
36,355000	0,66	1,912860	
36,366000	0,66	1,918820	
36,377000	0,66	1,921170	
36,388000	0,66	1,926440	
36,399000	0,66	1,930650	
36,410000	0,66	1,932310	
36,421000	0,66	1,935800	
36,432000	0,66	1,939640	
36,443000	0,66	1,945720	
36,454000	0,66	1,949420	
36,465000	0,66	1,950930	
36,476000	0,66	1,952390	
36,487000	0,66	1,953510	
36,498000	0,66	1,952460	
36,509000	0,66	1,951100	
36,520000	0,66	1,949730	
36,531000	0,66	1,949670	
36,542000	0,66	1,948920	
36,553000	0,66	1,945500	
36,564000	0,66	1,942660	
36,575000	0,66	1,938200	
36,586000	0,66	1,933810	
36,597000	0,66	1,931270	
36,608000	0,66	1,929300	
36,619000	0,66	1,928220	
36,630000	0,66	1,925120	
36,641000	0,66	1,921190	
36,652000	0,66	1,918550	
36,663000	0,66	1,917500	
36,674000	0,66	1,918270	
36,685000	0,66	1,918610	
36,696000	0,66	1,921630	
36,707000	0,66	1,923260	
36,718000	0,66	1,919230	
36,729000	0,66	1,916990	
36,740000	0,66	1,918560	
36,751000	0,66	1,919230	
36,762000	0,66	1,919370	
36,773000	0,66	1,917150	
36,784000	0,66	1,919360	
36,795000	0,66	1,921410	
36,806000	0,66	1,925090	
36,817000	0,66	1,928410	
36,828000	0,66	1,928410	
36,839000	0,66	1,931540	
36,850000	0,66	1,932690	
36,861000	0,66	1,933860	
36,872000	0,66	1,938400	
36,883000	0,66	1,941250	
36,894000	0,66	1,944970	
36,905000	0,66	1,945770	
36,916000	0,66	1,945760	
36,927000	0,66	1,950120	
36,938000	0,66	1,952370	
36,949000	0,66	1,957460	
36,960000	0,66	1,960840	
36,971000	0,66	1,961790	
36,982000	0,66	1,966130	
36,993000	0,66	1,969460	
37,004000	0,66	1,972080	
37,015000	0,66	1,975800	
37,026000	0,66	1,980030	
37,037000	0,66	1,984280	
37,048000	0,66	1,988480	
37,059000	0,66	1,992090	
37,070000	0,66	1,995780	
37,081000	0,66	1,997920	
37,092000	0,66	2,004740	
37,103000	0,66	2,010950	
37,114000	0,66	2,015740	
37,125000	0,66	2,020690	
37,136000	0,66	2,023350	
37,147000	0,66	2,027600	
37,158000	0,66	2,032080	
37,169000	0,66	2,037900	
37,180000	0,66	2,044500	
37,191000	0,66	2,048060	
37,202000	0,66	2,049220	
37,213000	0,66	2,054410	
37,224000	0,66	2,061240	
37,235000	0,66	2,067190	
37,246000	0,66	2,074980	
37,257000	0,66	2,079380	
37,268000	0,66	2,080950	
37,279000	0,66	2,085730	
37,290000	0,66	2,090440	
37,301000	0,66	2,094880	
37,312000	0,66	2,101900	
37,323000	0,66	2,109320	
37,334000	0,66	2,113410	
37,345000	0,66	2,119740	
37,356000	0,66	2,129900	
37,367000	0,66	2,137970	
37,378000	0,66	2,146260	
37,389000	0,66	2,153620	
37,400000	0,66	2,159300	
37,411000	0,66	2,163630	
37,422000	0,66	2,168470	
37,433000	0,66	2,176890	
37,444000	0,66	2,185580	
37,455000	0,66	2,194060	
37,466000	0,66	2,202860	
37,477000	0,66	2,209930	
37,488000	0,66	2,216290	
37,499000	0,66	2,222900	
37,510000	0,66	2,229770	
37,521000	0,66	2,236650	
37,532000	0,66	2,243620	
37,543000	0,66	2,249020	
37,554000	0,66	2,256810	
37,565000	0,66	2,267310	
37,576000	0,66	2,275560	
37,587000	0,66	2,284310	
37,598000	0,66	2,290050	
37,609000	0,66	2,297690	
37,620000	0,66	2,304790	
37,631000	0,66	2,313340	
37,642000	0,66	2,320490	
37,653000	0,66	2,329000	
37,664000	0,66	2,340010	
37,675000	0,66	2,348560	
37,686000	0,66	2,355320	
37,697000	0,66	2,361630	
37,708000	0,66	2,368760	
37,719000	0,66	2,376800	
37,730000	0,66	2,386260	
37,741000	0,66	2,393550	
37,752000	0,66	2,401280	
37,763000	0,66	2,408590	
37,774000	0,66	2,418140	
37,785000	0,66	2,427690	
37,796000	0,66	2,434950	
37,807000	0,66	2,441060	
37,818000	0,66	2,446290	
37,829000	0,66	2,451170	
37,840000	0,66	2,455230	
37,851000	0,66	2,460600	
37,862000	0,66	2,465070	
37,873000	0,66	2,471870	
37,884000	0,66	2,480290	
37,895000	0,66	2,486030	
37,906000	0,66	2,491780	
37,917000	0,66	2,498230	
37,928000	0,66	2,503230	
37,939000	0,66	2,509500	
37,950000	0,66	2,517470	
37,961000	0,66	2,525390	
37,972000	0,66	2,532670	
37,983000	0,66	2,540870	
37,994000	0,66	2,549720	
38,005000	0,66	2,556710	
38,016000	0,66	2,563060	
38,027000	0,66	2,570330	
38,038000	0,66	2,575620	
38,049000	0,66	2,580000	
38,060000	0,66	2,588050	
38,071000	0,66	2,598940	
38,082000	0,66	2,609950	
38,093000	0,66	2,620980	
38,104000	0,66	2,632260	
38,115000	0,66	2,640200	
38,126000	0,66	2,650200	
38,137000	0,66	2,660400	
38,148000	0,66	2,670240	
38,159000	0,66	2,682650	
38,170000	0,66	2,699140	
38,181000	0,66	2,714540	
38,192000	0,66	2,728940	
38,203000	0,66	2,743360	
38,214000	0,66	2,760200	
38,225000	0,66	2,776330	
38,236000	0,66	2,792710	
38,247000	0,66	2,805290	
38,258000	0,66	2,817990	
38,269000	0,66	2,834600	
38,280000	0,66	2,849890	
38,291000	0,66	2,868500	
38,302000	0,66	2,887230	
38,313000	0,66	2,910680	
38,324000	0,66	2,940100	
38,335000	0,66	2,971500	
38,346000	0,66	2,997350	
38,357000	0,66	3,027560	
38,368000	0,66	3,056380	
38,379000	0,66	3,086040	
38,390000	0,66	3,108570	
38,401000	0,66	3,125850	
38,412000	0,66	3,137760	
38,423000	0,66	3,144680	
38,434000	0,66	3,146510	
38,445000	0,66	3,143890	
38,456000	0,66	3,139130	
38,467000	0,66	3,130390	
38,478000	0,66	3,120840	
38,489000	0,66	3,112810	
38,500000	0,66	3,107000	
38,511000	0,66	3,105770	
38,522000	0,66	3,104490	
38,533000	0,66	3,104170	
38,544000	0,66	3,105650	
38,555000	0,66	3,110370	
38,566000	0,66	3,111720	
38,577000	0,66	3,112970	
38,588000	0,66	3,117980	
38,599000	0,66	3,125840	
38,610000	0,66	3,130700	
38,621000	0,66	3,136770	
38,632000	0,66	3,142910	
38,643000	0,66	3,145580	
38,654000	0,66	3,150730	
38,665000	0,66	3,156520	
38,676000	0,66	3,160960	
38,687000	0,66	3,165060	
38,698000	0,66	3,165850	
38,709000	0,66	3,165090	
38,720000	0,66	3,168120	
38,731000	0,66	3,171940	
38,742000	0,66	3,173040	
38,753000	0,66	3,175360	
38,764000	0,66	3,177490	
38,775000	0,66	3,179000	
38,786000	0,66	3,180670	
38,797000	0,66	3,180360	
38,808000	0,66	3,182390	
38,819000	0,66	3,182570	
38,830000	0,66	3,183080	
38,841000	0,66	3,186800	
38,852000	0,66	3,189560	
38,863000	0,66	3,189660	
38,874000	0,66	3,192630	
38,885000	0,66	3,197690	
38,896000	0,66	3,198590	
38,907000	0,66	3,200510	
38,918000	0,66	3,204940	
38,929000	0,66	3,205480	
38,940000	0,66	3,211240	
38,951000	0,66	3,215000	
38,962000	0,66	3,221320	
38,973000	0,66	3,228230	
38,984000	0,66	3,232210	
38,995000	0,66	3,237010	
39,006000	0,66	3,243800	
39,017000	0,66	3,253760	
39,028000	0,66	3,259860	
39,039000	0,66	3,265210	
39,050000	0,66	3,270310	
39,061000	0,66	3,277520	
39,072000	0,66	3,282780	
39,083000	0,66	3,290180	
39,094000	0,66	3,297680	
39,105000	0,66	3,305460	
39,116000	0,66	3,313940	
39,127000	0,66	3,321650	
39,138000	0,66	3,329450	
39,149000	0,66	3,335810	
39,160000	0,66	3,344420	
39,171000	0,66	3,352300	
39,182000	0,66	3,359590	
39,193000	0,66	3,364540	
39,204000	0,66	3,373020	
39,215000	0,66	3,378320	
39,226000	0,66	3,387880	
39,237000	0,66	3,393980	
39,248000	0,66	3,399300	
39,259000	0,66	3,404440	
39,270000	0,66	3,408430	
39,281000	0,66	3,413280	
39,292000	0,66	3,418390	
39,303000	0,66	3,421630	
39,314000	0,66	3,425850	
39,325000	0,66	3,431600	
39,336000	0,66	3,439180	
39,347000	0,66	3,446230	
39,358000	0,66	3,452280	
39,369000	0,66	3,458310	
39,380000	0,66	3,466410	
39,391000	0,66	3,474330	
39,402000	0,66	3,480160	
39,413000	0,66	3,488170	
39,424000	0,66	3,497290	
39,435000	0,66	3,505130	
39,446000	0,66	3,514010	
39,457000	0,66	3,526910	
39,468000	0,66	3,542400	
39,479000	0,66	3,557750	
39,490000	0,66	3,575750	
39,501000	0,66	3,591320	
39,512000	0,66	3,607400	
39,523000	0,66	3,627510	
39,534000	0,66	3,648190	
39,545000	0,66	3,670120	
39,556000	0,66	3,691400	
39,567000	0,66	3,712730	
39,578000	0,66	3,733130	
39,589000	0,66	3,754460	
39,600000	0,66	3,778120	
39,611000	0,66	3,799160	
39,622000	0,66	3,823490	
39,633000	0,66	3,849080	
39,644000	0,66	3,870400	
39,655000	0,66	3,889900	
39,666000	0,66	3,911790	
39,677000	0,66	3,929940	
39,688000	0,66	3,948070	
39,699000	0,66	3,963950	
39,710000	0,66	3,975510	
39,721000	0,66	3,987310	
39,732000	0,66	3,998400	
39,743000	0,66	4,008920	
39,754000	0,66	4,014790	
39,765000	0,66	4,020300	
39,776000	0,66	4,022680	
39,787000	0,66	4,025950	
39,798000	0,66	4,028470	
39,809000	0,66	4,032800	
39,820000	0,66	4,032570	
39,831000	0,66	4,030630	
39,842000	0,66	4,029010	
39,853000	0,66	4,027510	
39,864000	0,66	4,027970	
39,875000	0,66	4,025080	
39,886000	0,66	4,021130	
39,897000	0,66	4,022880	
39,908000	0,66	4,024170	
39,919000	0,66	4,022850	
39,930000	0,66	4,024120	
39,941000	0,66	4,022970	
39,952000	0,66	4,021160	
39,963000	0,66	4,024390	
39,974000	0,66	4,026400	
39,985000	0,66	4,028750	
39,996000	0,66	4,032310	
40,007000	0,66	4,035380	
