Filepath	C:\Chromel\data\Analytik\Walther group\Guido\mechanosense\GCR260.SEQ\UV_VIS_3.CHL\17184.acd
Channel	UV_VIS_3

Sample Information:
Datasource	PC-8NN4M2J_local
Sequence	Analytik\Walther group\Guido\mechanosense\GCR260.SEQ
Sample	200717-12
Sample Number	316
Sample Position	RC2
Sample ID	17184
Comment	260-P5-3
QNT method	default
PGM file	single-component-3 40min 60C 0,4mLmin
Type	unknown
Status	finished
Date	17.07.2020
Time	18:39:25
Injection Volume (µl)	100,00
Dilution Factor	1,000000
Amount	1,000000
Weight	1,000000

Raw Data Header Information:
Time Min. (min)	0,000
Time Max. (min)	40,007
Raw-Time Min. (min)	0,000
Raw-Time Max. (min)	40,007
Data Points	3638
Detector	VWD3000.dll
Preferred Read Mode	Unknown
Write Mode	Unknown
Data System	Chromeleon
Version High	06
Version Low	80
Build No.	3160
File Format Version	11
Generation Type	8
File ID	239054205
File Status	16
GUID	c3382d04-c84b-11ea-b409-00184d71f7da
Signal Factor	0,000010
Signal Dimension	mAU
Signal Unit	Absorbance
Signal Min.	-1,52029
Signal Max.	24,646210
Channel Name	UV_VIS_3
Driver Name	VWD-3x00 Detector
Min. Step	66
Max. Step	66
Average Step	66

Signal Parameter Information:
Signal Info	WVL:610 nm
Wavelength	610 nm
	 




















Raw Data:
Time(min)	Step(sec)	Value(mAU)
0,000000	0,00	0,012360	
0,011000	0,66	0,015670	
0,022000	0,66	0,052370	
0,033000	0,66	0,086580	
0,044000	0,66	0,098210	
0,055000	0,66	0,106560	
0,066000	0,66	0,108680	
0,077000	0,66	0,094000	
0,088000	0,66	0,104070	
0,099000	0,66	0,113310	
0,110000	0,66	0,117130	
0,121000	0,66	0,098780	
0,132000	0,66	0,094060	
0,143000	0,66	0,089310	
0,154000	0,66	0,091040	
0,165000	0,66	0,087960	
0,176000	0,66	0,080720	
0,187000	0,66	0,072150	
0,198000	0,66	0,063500	
0,209000	0,66	0,068070	
0,220000	0,66	0,091860	
0,231000	0,66	0,105060	
0,242000	0,66	0,105620	
0,253000	0,66	0,096430	
0,264000	0,66	0,095820	
0,275000	0,66	0,100650	
0,286000	0,66	0,090630	
0,297000	0,66	0,082760	
0,308000	0,66	0,073690	
0,319000	0,66	0,073410	
0,330000	0,66	0,083570	
0,341000	0,66	0,084470	
0,352000	0,66	0,070780	
0,363000	0,66	0,060760	
0,374000	0,66	0,056920	
0,385000	0,66	0,053890	
0,396000	0,66	0,055710	
0,407000	0,66	0,056740	
0,418000	0,66	0,065170	
0,429000	0,66	0,067770	
0,440000	0,66	0,065010	
0,451000	0,66	0,076650	
0,462000	0,66	0,073650	
0,473000	0,66	0,071400	
0,484000	0,66	0,066010	
0,495000	0,66	0,055410	
0,506000	0,66	0,056340	
0,517000	0,66	0,059550	
0,528000	0,66	0,066380	
0,539000	0,66	0,070980	
0,550000	0,66	0,064520	
0,561000	0,66	0,064200	
0,572000	0,66	0,073810	
0,583000	0,66	0,076890	
0,594000	0,66	0,071280	
0,605000	0,66	0,073490	
0,616000	0,66	0,075280	
0,627000	0,66	0,086300	
0,638000	0,66	0,092090	
0,649000	0,66	0,083130	
0,660000	0,66	0,081790	
0,671000	0,66	0,090900	
0,682000	0,66	0,100840	
0,693000	0,66	0,090760	
0,704000	0,66	0,081200	
0,715000	0,66	0,079800	
0,726000	0,66	0,076820	
0,737000	0,66	0,073440	
0,748000	0,66	0,051600	
0,759000	0,66	0,053540	
0,770000	0,66	0,055320	
0,781000	0,66	0,055220	
0,792000	0,66	0,043940	
0,803000	0,66	0,047310	
0,814000	0,66	0,053450	
0,825000	0,66	0,059990	
0,836000	0,66	0,067740	
0,847000	0,66	0,074230	
0,858000	0,66	0,080460	
0,869000	0,66	0,092810	
0,880000	0,66	0,092210	
0,891000	0,66	0,098090	
0,902000	0,66	0,096490	
0,913000	0,66	0,088150	
0,924000	0,66	0,089320	
0,935000	0,66	0,092170	
0,946000	0,66	0,082370	
0,957000	0,66	0,080900	
0,968000	0,66	0,081300	
0,979000	0,66	0,080440	
0,990000	0,66	0,078100	
1,001000	0,66	0,080480	
1,012000	0,66	0,077160	
1,023000	0,66	0,065790	
1,034000	0,66	0,049520	
1,045000	0,66	0,049670	
1,056000	0,66	0,055740	
1,067000	0,66	0,054680	
1,078000	0,66	0,058310	
1,089000	0,66	0,054370	
1,100000	0,66	0,050150	
1,111000	0,66	0,049660	
1,122000	0,66	0,042150	
1,133000	0,66	0,043690	
1,144000	0,66	0,051920	
1,155000	0,66	0,047150	
1,166000	0,66	0,060400	
1,177000	0,66	0,078110	
1,188000	0,66	0,081260	
1,199000	0,66	0,078450	
1,210000	0,66	0,070880	
1,221000	0,66	0,066680	
1,232000	0,66	0,065660	
1,243000	0,66	0,058320	
1,254000	0,66	0,049440	
1,265000	0,66	0,044270	
1,276000	0,66	0,046830	
1,287000	0,66	0,044910	
1,298000	0,66	0,023470	
1,309000	0,66	-0,078660	
1,320000	0,66	-0,291520	
1,331000	0,66	-0,568940	
1,342000	0,66	-0,809140	
1,353000	0,66	-0,903300	
1,364000	0,66	-0,863300	
1,375000	0,66	-0,704910	
1,386000	0,66	-0,506060	
1,397000	0,66	-0,318740	
1,408000	0,66	-0,157170	
1,419000	0,66	-0,020760	
1,430000	0,66	0,084990	
1,441000	0,66	0,162090	
1,452000	0,66	0,224750	
1,463000	0,66	0,283240	
1,474000	0,66	0,341300	
1,485000	0,66	0,407560	
1,496000	0,66	0,482500	
1,507000	0,66	0,549450	
1,518000	0,66	0,620910	
1,529000	0,66	0,693130	
1,540000	0,66	0,763270	
1,551000	0,66	0,814160	
1,562000	0,66	0,865880	
1,573000	0,66	0,918600	
1,584000	0,66	0,925800	
1,595000	0,66	0,924920	
1,606000	0,66	0,901840	
1,617000	0,66	0,847880	
1,628000	0,66	0,766850	
1,639000	0,66	0,650650	
1,650000	0,66	0,519100	
1,661000	0,66	0,380820	
1,672000	0,66	0,242780	
1,683000	0,66	0,128110	
1,694000	0,66	0,033670	
1,705000	0,66	-0,046730	
1,716000	0,66	-0,093820	
1,727000	0,66	-0,108180	
1,738000	0,66	-0,096820	
1,749000	0,66	-0,070870	
1,760000	0,66	-0,042500	
1,771000	0,66	-0,002990	
1,782000	0,66	0,051710	
1,793000	0,66	0,097230	
1,804000	0,66	0,125270	
1,815000	0,66	0,161100	
1,826000	0,66	0,201010	
1,837000	0,66	0,226870	
1,848000	0,66	0,245330	
1,859000	0,66	0,270580	
1,870000	0,66	0,295280	
1,881000	0,66	0,309520	
1,892000	0,66	0,315690	
1,903000	0,66	0,322060	
1,914000	0,66	0,335540	
1,925000	0,66	0,348740	
1,936000	0,66	0,356820	
1,947000	0,66	0,360600	
1,958000	0,66	0,363050	
1,969000	0,66	0,364590	
1,980000	0,66	0,374140	
1,991000	0,66	0,388440	
2,002000	0,66	0,391850	
2,013000	0,66	0,394010	
2,024000	0,66	0,403710	
2,035000	0,66	0,414480	
2,046000	0,66	0,423020	
2,057000	0,66	0,402290	
2,068000	0,66	0,385830	
2,079000	0,66	0,387500	
2,090000	0,66	0,397890	
2,101000	0,66	0,403580	
2,112000	0,66	0,396550	
2,123000	0,66	0,397300	
2,134000	0,66	0,395270	
2,145000	0,66	0,386760	
2,156000	0,66	0,390940	
2,167000	0,66	0,339450	
2,178000	0,66	0,087660	
2,189000	0,66	-0,401780	
2,200000	0,66	-0,939020	
2,211000	0,66	-1,338580	
2,222000	0,66	-1,520290	
2,233000	0,66	-1,516500	
2,244000	0,66	-1,400040	
2,255000	0,66	-1,222200	
2,266000	0,66	-1,014910	
2,277000	0,66	-0,811920	
2,288000	0,66	-0,623950	
2,299000	0,66	-0,462770	
2,310000	0,66	-0,329950	
2,321000	0,66	-0,236960	
2,332000	0,66	-0,161530	
2,343000	0,66	-0,108170	
2,354000	0,66	-0,060970	
2,365000	0,66	-0,026650	
2,376000	0,66	-0,003250	
2,387000	0,66	0,010550	
2,398000	0,66	0,020810	
2,409000	0,66	0,032740	
2,420000	0,66	0,043280	
2,431000	0,66	0,044230	
2,442000	0,66	0,046470	
2,453000	0,66	0,053490	
2,464000	0,66	0,060370	
2,475000	0,66	0,066990	
2,486000	0,66	0,071550	
2,497000	0,66	0,067640	
2,508000	0,66	0,045010	
2,519000	0,66	0,033700	
2,530000	0,66	0,038190	
2,541000	0,66	0,036370	
2,552000	0,66	0,038390	
2,563000	0,66	0,044550	
2,574000	0,66	0,031840	
2,585000	0,66	0,025430	
2,596000	0,66	0,027260	
2,607000	0,66	0,031890	
2,618000	0,66	0,041760	
2,629000	0,66	0,049070	
2,640000	0,66	0,051620	
2,651000	0,66	0,056510	
2,662000	0,66	0,056130	
2,673000	0,66	0,064240	
2,684000	0,66	0,049130	
2,695000	0,66	0,046610	
2,706000	0,66	0,046270	
2,717000	0,66	0,060690	
2,728000	0,66	0,062930	
2,739000	0,66	0,051560	
2,750000	0,66	0,045440	
2,761000	0,66	0,042360	
2,772000	0,66	0,042740	
2,783000	0,66	0,048230	
2,794000	0,66	0,049060	
2,805000	0,66	0,050560	
2,816000	0,66	0,055120	
2,827000	0,66	0,055400	
2,838000	0,66	0,056640	
2,849000	0,66	0,063870	
2,860000	0,66	0,056120	
2,871000	0,66	0,053050	
2,882000	0,66	0,043530	
2,893000	0,66	0,038140	
2,904000	0,66	0,040220	
2,915000	0,66	0,053150	
2,926000	0,66	0,056960	
2,937000	0,66	0,056770	
2,948000	0,66	0,060730	
2,959000	0,66	0,054590	
2,970000	0,66	0,049120	
2,981000	0,66	0,035760	
2,992000	0,66	0,040380	
3,003000	0,66	0,045170	
3,014000	0,66	0,059130	
3,025000	0,66	0,065020	
3,036000	0,66	0,077320	
3,047000	0,66	0,081490	
3,058000	0,66	0,079590	
3,069000	0,66	0,076490	
3,080000	0,66	0,072900	
3,091000	0,66	0,067000	
3,102000	0,66	0,059930	
3,113000	0,66	0,047760	
3,124000	0,66	0,047320	
3,135000	0,66	0,055920	
3,146000	0,66	0,063830	
3,157000	0,66	0,064190	
3,168000	0,66	0,050950	
3,179000	0,66	0,048160	
3,190000	0,66	0,055440	
3,201000	0,66	0,051720	
3,212000	0,66	0,050880	
3,223000	0,66	0,064280	
3,234000	0,66	0,070300	
3,245000	0,66	0,067760	
3,256000	0,66	0,068880	
3,267000	0,66	0,063220	
3,278000	0,66	0,068270	
3,289000	0,66	0,073740	
3,300000	0,66	0,075170	
3,311000	0,66	0,079460	
3,322000	0,66	0,078750	
3,333000	0,66	0,071490	
3,344000	0,66	0,060090	
3,355000	0,66	0,061370	
3,366000	0,66	0,060170	
3,377000	0,66	0,058310	
3,388000	0,66	0,062130	
3,399000	0,66	0,046260	
3,410000	0,66	0,039610	
3,421000	0,66	0,053780	
3,432000	0,66	0,058140	
3,443000	0,66	0,054750	
3,454000	0,66	0,056240	
3,465000	0,66	0,057400	
3,476000	0,66	0,058010	
3,487000	0,66	0,057810	
3,498000	0,66	0,047990	
3,509000	0,66	0,046260	
3,520000	0,66	0,057650	
3,531000	0,66	0,067090	
3,542000	0,66	0,062510	
3,553000	0,66	0,060360	
3,564000	0,66	0,065210	
3,575000	0,66	0,058800	
3,586000	0,66	0,034350	
3,597000	0,66	0,034800	
3,608000	0,66	0,039150	
3,619000	0,66	0,032100	
3,630000	0,66	0,043930	
3,641000	0,66	0,053480	
3,652000	0,66	0,057360	
3,663000	0,66	0,051930	
3,674000	0,66	0,048220	
3,685000	0,66	0,048780	
3,696000	0,66	0,049850	
3,707000	0,66	0,048840	
3,718000	0,66	0,053320	
3,729000	0,66	0,053630	
3,740000	0,66	0,051570	
3,751000	0,66	0,050420	
3,762000	0,66	0,052280	
3,773000	0,66	0,053210	
3,784000	0,66	0,049780	
3,795000	0,66	0,049270	
3,806000	0,66	0,049180	
3,817000	0,66	0,045640	
3,828000	0,66	0,045620	
3,839000	0,66	0,048910	
3,850000	0,66	0,051570	
3,861000	0,66	0,057470	
3,872000	0,66	0,053230	
3,883000	0,66	0,037430	
3,894000	0,66	0,037710	
3,905000	0,66	0,045190	
3,916000	0,66	0,045760	
3,927000	0,66	0,047400	
3,938000	0,66	0,048200	
3,949000	0,66	0,052970	
3,960000	0,66	0,057690	
3,971000	0,66	0,051610	
3,982000	0,66	0,043350	
3,993000	0,66	0,043940	
4,004000	0,66	0,053280	
4,015000	0,66	0,058060	
4,026000	0,66	0,070020	
4,037000	0,66	0,053280	
4,048000	0,66	0,047470	
4,059000	0,66	0,052430	
4,070000	0,66	0,063750	
4,081000	0,66	0,071180	
4,092000	0,66	0,060080	
4,103000	0,66	0,058800	
4,114000	0,66	0,063810	
4,125000	0,66	0,058070	
4,136000	0,66	0,064750	
4,147000	0,66	0,079750	
4,158000	0,66	0,068390	
4,169000	0,66	0,048780	
4,180000	0,66	0,033570	
4,191000	0,66	0,034800	
4,202000	0,66	0,034080	
4,213000	0,66	0,036900	
4,224000	0,66	0,035730	
4,235000	0,66	0,047440	
4,246000	0,66	0,054100	
4,257000	0,66	0,051090	
4,268000	0,66	0,050010	
4,279000	0,66	0,052380	
4,290000	0,66	0,050150	
4,301000	0,66	0,044800	
4,312000	0,66	0,052560	
4,323000	0,66	0,056600	
4,334000	0,66	0,052160	
4,345000	0,66	0,040510	
4,356000	0,66	0,031680	
4,367000	0,66	0,037150	
4,378000	0,66	0,050350	
4,389000	0,66	0,053050	
4,400000	0,66	0,032670	
4,411000	0,66	0,040450	
4,422000	0,66	0,048630	
4,433000	0,66	0,042470	
4,444000	0,66	0,045680	
4,455000	0,66	0,048010	
4,466000	0,66	0,045440	
4,477000	0,66	0,042150	
4,488000	0,66	0,036480	
4,499000	0,66	0,035200	
4,510000	0,66	0,030300	
4,521000	0,66	0,029210	
4,532000	0,66	0,046240	
4,543000	0,66	0,051210	
4,554000	0,66	0,044250	
4,565000	0,66	0,050700	
4,576000	0,66	0,055610	
4,587000	0,66	0,052340	
4,598000	0,66	0,050230	
4,609000	0,66	0,052620	
4,620000	0,66	0,058130	
4,631000	0,66	0,062500	
4,642000	0,66	0,065960	
4,653000	0,66	0,065140	
4,664000	0,66	0,061330	
4,675000	0,66	0,062820	
4,686000	0,66	0,064880	
4,697000	0,66	0,061180	
4,708000	0,66	0,055080	
4,719000	0,66	0,048260	
4,730000	0,66	0,039770	
4,741000	0,66	0,028950	
4,752000	0,66	0,032510	
4,763000	0,66	0,030780	
4,774000	0,66	0,039360	
4,785000	0,66	0,044900	
4,796000	0,66	0,057600	
4,807000	0,66	0,057280	
4,818000	0,66	0,046300	
4,829000	0,66	0,047870	
4,840000	0,66	0,054220	
4,851000	0,66	0,038440	
4,862000	0,66	0,038100	
4,873000	0,66	0,035830	
4,884000	0,66	0,029180	
4,895000	0,66	0,031920	
4,906000	0,66	0,044720	
4,917000	0,66	0,047080	
4,928000	0,66	0,038190	
4,939000	0,66	0,037090	
4,950000	0,66	0,056950	
4,961000	0,66	0,068840	
4,972000	0,66	0,064260	
4,983000	0,66	0,062530	
4,994000	0,66	0,065970	
5,005000	0,66	0,063840	
5,016000	0,66	0,057540	
5,027000	0,66	0,050730	
5,038000	0,66	0,050300	
5,049000	0,66	0,062140	
5,060000	0,66	0,060830	
5,071000	0,66	0,050670	
5,082000	0,66	0,047380	
5,093000	0,66	0,040810	
5,104000	0,66	0,039110	
5,115000	0,66	0,037600	
5,126000	0,66	0,035370	
5,137000	0,66	0,022440	
5,148000	0,66	0,014590	
5,159000	0,66	0,018400	
5,170000	0,66	0,033940	
5,181000	0,66	0,042160	
5,192000	0,66	0,037110	
5,203000	0,66	0,036320	
5,214000	0,66	0,032090	
5,225000	0,66	0,021000	
5,236000	0,66	0,021200	
5,247000	0,66	0,035730	
5,258000	0,66	0,054940	
5,269000	0,66	0,058120	
5,280000	0,66	0,046240	
5,291000	0,66	0,041960	
5,302000	0,66	0,033840	
5,313000	0,66	0,021730	
5,324000	0,66	0,019140	
5,335000	0,66	0,019860	
5,346000	0,66	0,011320	
5,357000	0,66	-0,000990	
5,368000	0,66	0,004750	
5,379000	0,66	0,019090	
5,390000	0,66	0,026720	
5,401000	0,66	0,029890	
5,412000	0,66	0,030200	
5,423000	0,66	0,022790	
5,434000	0,66	0,023720	
5,445000	0,66	0,024580	
5,456000	0,66	0,023630	
5,467000	0,66	0,022430	
5,478000	0,66	0,019560	
5,489000	0,66	0,021670	
5,500000	0,66	0,023540	
5,511000	0,66	0,030360	
5,522000	0,66	0,028240	
5,533000	0,66	0,022770	
5,544000	0,66	0,013970	
5,555000	0,66	0,003440	
5,566000	0,66	0,012180	
5,577000	0,66	0,002080	
5,588000	0,66	0,002660	
5,599000	0,66	0,004620	
5,610000	0,66	-0,005430	
5,621000	0,66	-0,003560	
5,632000	0,66	-0,008440	
5,643000	0,66	-0,009590	
5,654000	0,66	-0,003610	
5,665000	0,66	-0,000550	
5,676000	0,66	0,002840	
5,687000	0,66	-0,001190	
5,698000	0,66	-0,002740	
5,709000	0,66	0,003890	
5,720000	0,66	0,005610	
5,731000	0,66	0,009580	
5,742000	0,66	0,015360	
5,753000	0,66	0,004980	
5,764000	0,66	0,007830	
5,775000	0,66	0,008010	
5,786000	0,66	0,002170	
5,797000	0,66	-0,004510	
5,808000	0,66	0,007180	
5,819000	0,66	0,011460	
5,830000	0,66	0,017650	
5,841000	0,66	0,022350	
5,852000	0,66	0,022070	
5,863000	0,66	0,026230	
5,874000	0,66	0,027320	
5,885000	0,66	0,023530	
5,896000	0,66	0,028010	
5,907000	0,66	0,027960	
5,918000	0,66	0,021290	
5,929000	0,66	0,013400	
5,940000	0,66	0,007660	
5,951000	0,66	0,007450	
5,962000	0,66	0,008980	
5,973000	0,66	0,016080	
5,984000	0,66	0,020890	
5,995000	0,66	0,021400	
6,006000	0,66	0,029510	
6,017000	0,66	0,038200	
6,028000	0,66	0,028860	
6,039000	0,66	0,014560	
6,050000	0,66	0,008440	
6,061000	0,66	0,001530	
6,072000	0,66	0,005100	
6,083000	0,66	0,003390	
6,094000	0,66	0,003080	
6,105000	0,66	0,001030	
6,116000	0,66	0,004800	
6,127000	0,66	0,007680	
6,138000	0,66	0,001800	
6,149000	0,66	-0,007440	
6,160000	0,66	-0,024640	
6,171000	0,66	-0,032500	
6,182000	0,66	-0,040840	
6,193000	0,66	-0,041710	
6,204000	0,66	-0,031990	
6,215000	0,66	-0,023320	
6,226000	0,66	-0,019450	
6,237000	0,66	-0,015040	
6,248000	0,66	-0,016570	
6,259000	0,66	-0,028920	
6,270000	0,66	-0,032430	
6,281000	0,66	-0,025150	
6,292000	0,66	-0,029880	
6,303000	0,66	-0,033650	
6,314000	0,66	-0,031600	
6,325000	0,66	-0,028300	
6,336000	0,66	-0,023410	
6,347000	0,66	-0,016120	
6,358000	0,66	-0,018250	
6,369000	0,66	-0,027200	
6,380000	0,66	-0,026350	
6,391000	0,66	-0,019970	
6,402000	0,66	-0,013990	
6,413000	0,66	-0,009790	
6,424000	0,66	-0,009130	
6,435000	0,66	-0,005420	
6,446000	0,66	0,000860	
6,457000	0,66	-0,002060	
6,468000	0,66	-0,012890	
6,479000	0,66	-0,023640	
6,490000	0,66	-0,024600	
6,501000	0,66	-0,023370	
6,512000	0,66	-0,016990	
6,523000	0,66	-0,011950	
6,534000	0,66	-0,019600	
6,545000	0,66	-0,033420	
6,556000	0,66	-0,040300	
6,567000	0,66	-0,042150	
6,578000	0,66	-0,040020	
6,589000	0,66	-0,039490	
6,600000	0,66	-0,043330	
6,611000	0,66	-0,041330	
6,622000	0,66	-0,034730	
6,633000	0,66	-0,030160	
6,644000	0,66	-0,025500	
6,655000	0,66	-0,020510	
6,666000	0,66	-0,019430	
6,677000	0,66	-0,021320	
6,688000	0,66	-0,017400	
6,699000	0,66	-0,012070	
6,710000	0,66	-0,008310	
6,721000	0,66	-0,014110	
6,732000	0,66	-0,039470	
6,743000	0,66	-0,047130	
6,754000	0,66	-0,044490	
6,765000	0,66	-0,040020	
6,776000	0,66	-0,041290	
6,787000	0,66	-0,037270	
6,798000	0,66	-0,036900	
6,809000	0,66	-0,045190	
6,820000	0,66	-0,042730	
6,831000	0,66	-0,035900	
6,842000	0,66	-0,036520	
6,853000	0,66	-0,017140	
6,864000	0,66	-0,015720	
6,875000	0,66	-0,028510	
6,886000	0,66	-0,028690	
6,897000	0,66	-0,033440	
6,908000	0,66	-0,035270	
6,919000	0,66	-0,040530	
6,930000	0,66	-0,035360	
6,941000	0,66	-0,038170	
6,952000	0,66	-0,030030	
6,963000	0,66	-0,031000	
6,974000	0,66	-0,033070	
6,985000	0,66	-0,038210	
6,996000	0,66	-0,044690	
7,007000	0,66	-0,053910	
7,018000	0,66	-0,043990	
7,029000	0,66	-0,037350	
7,040000	0,66	-0,031780	
7,051000	0,66	-0,024130	
7,062000	0,66	-0,027790	
7,073000	0,66	-0,030240	
7,084000	0,66	-0,027670	
7,095000	0,66	-0,024510	
7,106000	0,66	-0,023270	
7,117000	0,66	-0,020300	
7,128000	0,66	-0,027450	
7,139000	0,66	-0,033250	
7,150000	0,66	-0,044400	
7,161000	0,66	-0,041740	
7,172000	0,66	-0,050500	
7,183000	0,66	-0,051080	
7,194000	0,66	-0,035700	
7,205000	0,66	-0,034000	
7,216000	0,66	-0,037610	
7,227000	0,66	-0,037640	
7,238000	0,66	-0,041430	
7,249000	0,66	-0,045150	
7,260000	0,66	-0,040000	
7,271000	0,66	-0,027700	
7,282000	0,66	-0,031280	
7,293000	0,66	-0,043310	
7,304000	0,66	-0,044250	
7,315000	0,66	-0,043250	
7,326000	0,66	-0,043630	
7,337000	0,66	-0,038360	
7,348000	0,66	-0,026070	
7,359000	0,66	-0,021140	
7,370000	0,66	-0,023870	
7,381000	0,66	-0,027150	
7,392000	0,66	-0,037390	
7,403000	0,66	-0,034280	
7,414000	0,66	-0,023330	
7,425000	0,66	-0,016090	
7,436000	0,66	-0,016070	
7,447000	0,66	-0,016150	
7,458000	0,66	-0,023400	
7,469000	0,66	-0,019890	
7,480000	0,66	-0,028640	
7,491000	0,66	-0,039140	
7,502000	0,66	-0,046290	
7,513000	0,66	-0,036290	
7,524000	0,66	-0,032220	
7,535000	0,66	-0,032460	
7,546000	0,66	-0,046100	
7,557000	0,66	-0,043940	
7,568000	0,66	-0,030310	
7,579000	0,66	-0,024870	
7,590000	0,66	-0,035180	
7,601000	0,66	-0,040100	
7,612000	0,66	-0,043520	
7,623000	0,66	-0,041140	
7,634000	0,66	-0,027620	
7,645000	0,66	-0,016490	
7,656000	0,66	-0,018660	
7,667000	0,66	-0,018420	
7,678000	0,66	-0,021430	
7,689000	0,66	-0,027380	
7,700000	0,66	-0,025150	
7,711000	0,66	-0,035630	
7,722000	0,66	-0,028610	
7,733000	0,66	-0,032590	
7,744000	0,66	-0,037450	
7,755000	0,66	-0,033220	
7,766000	0,66	-0,026460	
7,777000	0,66	-0,029350	
7,788000	0,66	-0,029130	
7,799000	0,66	-0,016740	
7,810000	0,66	-0,022770	
7,821000	0,66	-0,025350	
7,832000	0,66	-0,024090	
7,843000	0,66	-0,028240	
7,854000	0,66	-0,022800	
7,865000	0,66	-0,019210	
7,876000	0,66	-0,017670	
7,887000	0,66	-0,020690	
7,898000	0,66	-0,018640	
7,909000	0,66	-0,015560	
7,920000	0,66	-0,024060	
7,931000	0,66	-0,027300	
7,942000	0,66	-0,032860	
7,953000	0,66	-0,043490	
7,964000	0,66	-0,034680	
7,975000	0,66	-0,028010	
7,986000	0,66	-0,027830	
7,997000	0,66	-0,024380	
8,008000	0,66	-0,027880	
8,019000	0,66	-0,032040	
8,030000	0,66	-0,032850	
8,041000	0,66	-0,028230	
8,052000	0,66	-0,026030	
8,063000	0,66	-0,041630	
8,074000	0,66	-0,055700	
8,085000	0,66	-0,057350	
8,096000	0,66	-0,050720	
8,107000	0,66	-0,041290	
8,118000	0,66	-0,046690	
8,129000	0,66	-0,049130	
8,140000	0,66	-0,044370	
8,151000	0,66	-0,036490	
8,162000	0,66	-0,039300	
8,173000	0,66	-0,037640	
8,184000	0,66	-0,027720	
8,195000	0,66	-0,025090	
8,206000	0,66	-0,032160	
8,217000	0,66	-0,036160	
8,228000	0,66	-0,029500	
8,239000	0,66	-0,035740	
8,250000	0,66	-0,037510	
8,261000	0,66	-0,037840	
8,272000	0,66	-0,031870	
8,283000	0,66	-0,024980	
8,294000	0,66	-0,025550	
8,305000	0,66	-0,024420	
8,316000	0,66	-0,032780	
8,327000	0,66	-0,033650	
8,338000	0,66	-0,042950	
8,349000	0,66	-0,042790	
8,360000	0,66	-0,045700	
8,371000	0,66	-0,035700	
8,382000	0,66	-0,033460	
8,393000	0,66	-0,030890	
8,404000	0,66	-0,032470	
8,415000	0,66	-0,053910	
8,426000	0,66	-0,067270	
8,437000	0,66	-0,068870	
8,448000	0,66	-0,065970	
8,459000	0,66	-0,065840	
8,470000	0,66	-0,050640	
8,481000	0,66	-0,034070	
8,492000	0,66	-0,038110	
8,503000	0,66	-0,053180	
8,514000	0,66	-0,058030	
8,525000	0,66	-0,044650	
8,536000	0,66	-0,049110	
8,547000	0,66	-0,063420	
8,558000	0,66	-0,064550	
8,569000	0,66	-0,060470	
8,580000	0,66	-0,052950	
8,591000	0,66	-0,053370	
8,602000	0,66	-0,053020	
8,613000	0,66	-0,054760	
8,624000	0,66	-0,054670	
8,635000	0,66	-0,042590	
8,646000	0,66	-0,041800	
8,657000	0,66	-0,039890	
8,668000	0,66	-0,046320	
8,679000	0,66	-0,047080	
8,690000	0,66	-0,042920	
8,701000	0,66	-0,040220	
8,712000	0,66	-0,038180	
8,723000	0,66	-0,037970	
8,734000	0,66	-0,043620	
8,745000	0,66	-0,056550	
8,756000	0,66	-0,062650	
8,767000	0,66	-0,060120	
8,778000	0,66	-0,046000	
8,789000	0,66	-0,044000	
8,800000	0,66	-0,047130	
8,811000	0,66	-0,060200	
8,822000	0,66	-0,072530	
8,833000	0,66	-0,066150	
8,844000	0,66	-0,066970	
8,855000	0,66	-0,065290	
8,866000	0,66	-0,060390	
8,877000	0,66	-0,055680	
8,888000	0,66	-0,057340	
8,899000	0,66	-0,045080	
8,910000	0,66	-0,030130	
8,921000	0,66	-0,042090	
8,932000	0,66	-0,041840	
8,943000	0,66	-0,050450	
8,954000	0,66	-0,054710	
8,965000	0,66	-0,055100	
8,976000	0,66	-0,058200	
8,987000	0,66	-0,059910	
8,998000	0,66	-0,065190	
9,009000	0,66	-0,069850	
9,020000	0,66	-0,060720	
9,031000	0,66	-0,046250	
9,042000	0,66	-0,044870	
9,053000	0,66	-0,042730	
9,064000	0,66	-0,047390	
9,075000	0,66	-0,055350	
9,086000	0,66	-0,066680	
9,097000	0,66	-0,068970	
9,108000	0,66	-0,054380	
9,119000	0,66	-0,057910	
9,130000	0,66	-0,055230	
9,141000	0,66	-0,061380	
9,152000	0,66	-0,064930	
9,163000	0,66	-0,071010	
9,174000	0,66	-0,081590	
9,185000	0,66	-0,082400	
9,196000	0,66	-0,063270	
9,207000	0,66	-0,045600	
9,218000	0,66	-0,040210	
9,229000	0,66	-0,042300	
9,240000	0,66	-0,048130	
9,251000	0,66	-0,055910	
9,262000	0,66	-0,057810	
9,273000	0,66	-0,059620	
9,284000	0,66	-0,064490	
9,295000	0,66	-0,058160	
9,306000	0,66	-0,051770	
9,317000	0,66	-0,048020	
9,328000	0,66	-0,044830	
9,339000	0,66	-0,047860	
9,350000	0,66	-0,053610	
9,361000	0,66	-0,057090	
9,372000	0,66	-0,056950	
9,383000	0,66	-0,068930	
9,394000	0,66	-0,064760	
9,405000	0,66	-0,045630	
9,416000	0,66	-0,051120	
9,427000	0,66	-0,059130	
9,438000	0,66	-0,062160	
9,449000	0,66	-0,062200	
9,460000	0,66	-0,051740	
9,471000	0,66	-0,046270	
9,482000	0,66	-0,050310	
9,493000	0,66	-0,065400	
9,504000	0,66	-0,070650	
9,515000	0,66	-0,059140	
9,526000	0,66	-0,046730	
9,537000	0,66	-0,050580	
9,548000	0,66	-0,055340	
9,559000	0,66	-0,068240	
9,570000	0,66	-0,083780	
9,581000	0,66	-0,089480	
9,592000	0,66	-0,091450	
9,603000	0,66	-0,096490	
9,614000	0,66	-0,100500	
9,625000	0,66	-0,101420	
9,636000	0,66	-0,082220	
9,647000	0,66	-0,072400	
9,658000	0,66	-0,068580	
9,669000	0,66	-0,073790	
9,680000	0,66	-0,080350	
9,691000	0,66	-0,068140	
9,702000	0,66	-0,066360	
9,713000	0,66	-0,074170	
9,724000	0,66	-0,080420	
9,735000	0,66	-0,082270	
9,746000	0,66	-0,082270	
9,757000	0,66	-0,073900	
9,768000	0,66	-0,072900	
9,779000	0,66	-0,056140	
9,790000	0,66	-0,062610	
9,801000	0,66	-0,072590	
9,812000	0,66	-0,067920	
9,823000	0,66	-0,074560	
9,834000	0,66	-0,080200	
9,845000	0,66	-0,078490	
9,856000	0,66	-0,079160	
9,867000	0,66	-0,076030	
9,878000	0,66	-0,078300	
9,889000	0,66	-0,079980	
9,900000	0,66	-0,078670	
9,911000	0,66	-0,083070	
9,922000	0,66	-0,078570	
9,933000	0,66	-0,080730	
9,944000	0,66	-0,080330	
9,955000	0,66	-0,077710	
9,966000	0,66	-0,076250	
9,977000	0,66	-0,073140	
9,988000	0,66	-0,060100	
9,999000	0,66	-0,064730	
10,010000	0,66	-0,077950	
10,021000	0,66	-0,069280	
10,032000	0,66	-0,062480	
10,043000	0,66	-0,055770	
10,054000	0,66	-0,057230	
10,065000	0,66	-0,068950	
10,076000	0,66	-0,075990	
10,087000	0,66	-0,078790	
10,098000	0,66	-0,081640	
10,109000	0,66	-0,079200	
10,120000	0,66	-0,072180	
10,131000	0,66	-0,066210	
10,142000	0,66	-0,061640	
10,153000	0,66	-0,065760	
10,164000	0,66	-0,069790	
10,175000	0,66	-0,064880	
10,186000	0,66	-0,066850	
10,197000	0,66	-0,072800	
10,208000	0,66	-0,070420	
10,219000	0,66	-0,063230	
10,230000	0,66	-0,067330	
10,241000	0,66	-0,076730	
10,252000	0,66	-0,075640	
10,263000	0,66	-0,083680	
10,274000	0,66	-0,074950	
10,285000	0,66	-0,067770	
10,296000	0,66	-0,056840	
10,307000	0,66	-0,055040	
10,318000	0,66	-0,050780	
10,329000	0,66	-0,044560	
10,340000	0,66	-0,046590	
10,351000	0,66	-0,054730	
10,362000	0,66	-0,060280	
10,373000	0,66	-0,057740	
10,384000	0,66	-0,053230	
10,395000	0,66	-0,054630	
10,406000	0,66	-0,060190	
10,417000	0,66	-0,063100	
10,428000	0,66	-0,076080	
10,439000	0,66	-0,064780	
10,450000	0,66	-0,073130	
10,461000	0,66	-0,073370	
10,472000	0,66	-0,062220	
10,483000	0,66	-0,074290	
10,494000	0,66	-0,079020	
10,505000	0,66	-0,073790	
10,516000	0,66	-0,063720	
10,527000	0,66	-0,062040	
10,538000	0,66	-0,070020	
10,549000	0,66	-0,055340	
10,560000	0,66	-0,058230	
10,571000	0,66	-0,068670	
10,582000	0,66	-0,065180	
10,593000	0,66	-0,067330	
10,604000	0,66	-0,076110	
10,615000	0,66	-0,076610	
10,626000	0,66	-0,083140	
10,637000	0,66	-0,082220	
10,648000	0,66	-0,075410	
10,659000	0,66	-0,072230	
10,670000	0,66	-0,068640	
10,681000	0,66	-0,057800	
10,692000	0,66	-0,057310	
10,703000	0,66	-0,058630	
10,714000	0,66	-0,058580	
10,725000	0,66	-0,061570	
10,736000	0,66	-0,060110	
10,747000	0,66	-0,053000	
10,758000	0,66	-0,051460	
10,769000	0,66	-0,055540	
10,780000	0,66	-0,052560	
10,791000	0,66	-0,055610	
10,802000	0,66	-0,066540	
10,813000	0,66	-0,069750	
10,824000	0,66	-0,072660	
10,835000	0,66	-0,069010	
10,846000	0,66	-0,056330	
10,857000	0,66	-0,054230	
10,868000	0,66	-0,055370	
10,879000	0,66	-0,053620	
10,890000	0,66	-0,055540	
10,901000	0,66	-0,061230	
10,912000	0,66	-0,060210	
10,923000	0,66	-0,049240	
10,934000	0,66	-0,056900	
10,945000	0,66	-0,055930	
10,956000	0,66	-0,054920	
10,967000	0,66	-0,054200	
10,978000	0,66	-0,057690	
10,989000	0,66	-0,064620	
11,000000	0,66	-0,064910	
11,011000	0,66	-0,056420	
11,022000	0,66	-0,065190	
11,033000	0,66	-0,076290	
11,044000	0,66	-0,075410	
11,055000	0,66	-0,059760	
11,066000	0,66	-0,061900	
11,077000	0,66	-0,045850	
11,088000	0,66	-0,053170	
11,099000	0,66	-0,056820	
11,110000	0,66	-0,063020	
11,121000	0,66	-0,064930	
11,132000	0,66	-0,063630	
11,143000	0,66	-0,063370	
11,154000	0,66	-0,064550	
11,165000	0,66	-0,071780	
11,176000	0,66	-0,071140	
11,187000	0,66	-0,071480	
11,198000	0,66	-0,067670	
11,209000	0,66	-0,068310	
11,220000	0,66	-0,066290	
11,231000	0,66	-0,061420	
11,242000	0,66	-0,048750	
11,253000	0,66	-0,055190	
11,264000	0,66	-0,056880	
11,275000	0,66	-0,052830	
11,286000	0,66	-0,058000	
11,297000	0,66	-0,072090	
11,308000	0,66	-0,077510	
11,319000	0,66	-0,060290	
11,330000	0,66	-0,057090	
11,341000	0,66	-0,072720	
11,352000	0,66	-0,072530	
11,363000	0,66	-0,061140	
11,374000	0,66	-0,073140	
11,385000	0,66	-0,089020	
11,396000	0,66	-0,082500	
11,407000	0,66	-0,070640	
11,418000	0,66	-0,062270	
11,429000	0,66	-0,063050	
11,440000	0,66	-0,061260	
11,451000	0,66	-0,059950	
11,462000	0,66	-0,068160	
11,473000	0,66	-0,062800	
11,484000	0,66	-0,056680	
11,495000	0,66	-0,064010	
11,506000	0,66	-0,069820	
11,517000	0,66	-0,068390	
11,528000	0,66	-0,064620	
11,539000	0,66	-0,058810	
11,550000	0,66	-0,054660	
11,561000	0,66	-0,053830	
11,572000	0,66	-0,051140	
11,583000	0,66	-0,055510	
11,594000	0,66	-0,058360	
11,605000	0,66	-0,068570	
11,616000	0,66	-0,077000	
11,627000	0,66	-0,063670	
11,638000	0,66	-0,054820	
11,649000	0,66	-0,066340	
11,660000	0,66	-0,063310	
11,671000	0,66	-0,066030	
11,682000	0,66	-0,068490	
11,693000	0,66	-0,057480	
11,704000	0,66	-0,047140	
11,715000	0,66	-0,049260	
11,726000	0,66	-0,058450	
11,737000	0,66	-0,060510	
11,748000	0,66	-0,059600	
11,759000	0,66	-0,059780	
11,770000	0,66	-0,054990	
11,781000	0,66	-0,052450	
11,792000	0,66	-0,056710	
11,803000	0,66	-0,062370	
11,814000	0,66	-0,059930	
11,825000	0,66	-0,054600	
11,836000	0,66	-0,059290	
11,847000	0,66	-0,064440	
11,858000	0,66	-0,064180	
11,869000	0,66	-0,057280	
11,880000	0,66	-0,043040	
11,891000	0,66	-0,046710	
11,902000	0,66	-0,053750	
11,913000	0,66	-0,064110	
11,924000	0,66	-0,086590	
11,935000	0,66	-0,085530	
11,946000	0,66	-0,090950	
11,957000	0,66	-0,079340	
11,968000	0,66	-0,076680	
11,979000	0,66	-0,078810	
11,990000	0,66	-0,076710	
12,001000	0,66	-0,068960	
12,012000	0,66	-0,065390	
12,023000	0,66	-0,065900	
12,034000	0,66	-0,070490	
12,045000	0,66	-0,064560	
12,056000	0,66	-0,049050	
12,067000	0,66	-0,049200	
12,078000	0,66	-0,050980	
12,089000	0,66	-0,055880	
12,100000	0,66	-0,066970	
12,111000	0,66	-0,079570	
12,122000	0,66	-0,090480	
12,133000	0,66	-0,089320	
12,144000	0,66	-0,077890	
12,155000	0,66	-0,069350	
12,166000	0,66	-0,062830	
12,177000	0,66	-0,060860	
12,188000	0,66	-0,069690	
12,199000	0,66	-0,080620	
12,210000	0,66	-0,092490	
12,221000	0,66	-0,101970	
12,232000	0,66	-0,088750	
12,243000	0,66	-0,067780	
12,254000	0,66	-0,068850	
12,265000	0,66	-0,076060	
12,276000	0,66	-0,078960	
12,287000	0,66	-0,077870	
12,298000	0,66	-0,069480	
12,309000	0,66	-0,072240	
12,320000	0,66	-0,076460	
12,331000	0,66	-0,081860	
12,342000	0,66	-0,072380	
12,353000	0,66	-0,070950	
12,364000	0,66	-0,079860	
12,375000	0,66	-0,074270	
12,386000	0,66	-0,071490	
12,397000	0,66	-0,076830	
12,408000	0,66	-0,077510	
12,419000	0,66	-0,079820	
12,430000	0,66	-0,083520	
12,441000	0,66	-0,084440	
12,452000	0,66	-0,071280	
12,463000	0,66	-0,071940	
12,474000	0,66	-0,069400	
12,485000	0,66	-0,073830	
12,496000	0,66	-0,080810	
12,507000	0,66	-0,077110	
12,518000	0,66	-0,077280	
12,529000	0,66	-0,062380	
12,540000	0,66	-0,058370	
12,551000	0,66	-0,068590	
12,562000	0,66	-0,057660	
12,573000	0,66	-0,063750	
12,584000	0,66	-0,071890	
12,595000	0,66	-0,082840	
12,606000	0,66	-0,092080	
12,617000	0,66	-0,081600	
12,628000	0,66	-0,068430	
12,639000	0,66	-0,061880	
12,650000	0,66	-0,069110	
12,661000	0,66	-0,077270	
12,672000	0,66	-0,077650	
12,683000	0,66	-0,067080	
12,694000	0,66	-0,071650	
12,705000	0,66	-0,071970	
12,716000	0,66	-0,065190	
12,727000	0,66	-0,059670	
12,738000	0,66	-0,074230	
12,749000	0,66	-0,078420	
12,760000	0,66	-0,071830	
12,771000	0,66	-0,071290	
12,782000	0,66	-0,066040	
12,793000	0,66	-0,056350	
12,804000	0,66	-0,056480	
12,815000	0,66	-0,064200	
12,826000	0,66	-0,067590	
12,837000	0,66	-0,072890	
12,848000	0,66	-0,079780	
12,859000	0,66	-0,083340	
12,870000	0,66	-0,085250	
12,881000	0,66	-0,086450	
12,892000	0,66	-0,092760	
12,903000	0,66	-0,088330	
12,914000	0,66	-0,072460	
12,925000	0,66	-0,076090	
12,936000	0,66	-0,079550	
12,947000	0,66	-0,070550	
12,958000	0,66	-0,068820	
12,969000	0,66	-0,067850	
12,980000	0,66	-0,065720	
12,991000	0,66	-0,055070	
13,002000	0,66	-0,052000	
13,013000	0,66	-0,048550	
13,024000	0,66	-0,047640	
13,035000	0,66	-0,055720	
13,046000	0,66	-0,060170	
13,057000	0,66	-0,064930	
13,068000	0,66	-0,082990	
13,079000	0,66	-0,088620	
13,090000	0,66	-0,093620	
13,101000	0,66	-0,103610	
13,112000	0,66	-0,101710	
13,123000	0,66	-0,092860	
13,134000	0,66	-0,094050	
13,145000	0,66	-0,088090	
13,156000	0,66	-0,079780	
13,167000	0,66	-0,077980	
13,178000	0,66	-0,073950	
13,189000	0,66	-0,065100	
13,200000	0,66	-0,056070	
13,211000	0,66	-0,057540	
13,222000	0,66	-0,060970	
13,233000	0,66	-0,060280	
13,244000	0,66	-0,064670	
13,255000	0,66	-0,073680	
13,266000	0,66	-0,064230	
13,277000	0,66	-0,061350	
13,288000	0,66	-0,068810	
13,299000	0,66	-0,074040	
13,310000	0,66	-0,071640	
13,321000	0,66	-0,082490	
13,332000	0,66	-0,089210	
13,343000	0,66	-0,089150	
13,354000	0,66	-0,088500	
13,365000	0,66	-0,084320	
13,376000	0,66	-0,071140	
13,387000	0,66	-0,069420	
13,398000	0,66	-0,072650	
13,409000	0,66	-0,066770	
13,420000	0,66	-0,071030	
13,431000	0,66	-0,079190	
13,442000	0,66	-0,087250	
13,453000	0,66	-0,086960	
13,464000	0,66	-0,076810	
13,475000	0,66	-0,076250	
13,486000	0,66	-0,088080	
13,497000	0,66	-0,085930	
13,508000	0,66	-0,088480	
13,519000	0,66	-0,106080	
13,530000	0,66	-0,113990	
13,541000	0,66	-0,108160	
13,552000	0,66	-0,104530	
13,563000	0,66	-0,101440	
13,574000	0,66	-0,095850	
13,585000	0,66	-0,096970	
13,596000	0,66	-0,096590	
13,607000	0,66	-0,092990	
13,618000	0,66	-0,094500	
13,629000	0,66	-0,096610	
13,640000	0,66	-0,100230	
13,651000	0,66	-0,100430	
13,662000	0,66	-0,095970	
13,673000	0,66	-0,097690	
13,684000	0,66	-0,108270	
13,695000	0,66	-0,109040	
13,706000	0,66	-0,087880	
13,717000	0,66	-0,086130	
13,728000	0,66	-0,093630	
13,739000	0,66	-0,095910	
13,750000	0,66	-0,094140	
13,761000	0,66	-0,091930	
13,772000	0,66	-0,099020	
13,783000	0,66	-0,094390	
13,794000	0,66	-0,087200	
13,805000	0,66	-0,092290	
13,816000	0,66	-0,097420	
13,827000	0,66	-0,084200	
13,838000	0,66	-0,071080	
13,849000	0,66	-0,072760	
13,860000	0,66	-0,090090	
13,871000	0,66	-0,083570	
13,882000	0,66	-0,088900	
13,893000	0,66	-0,084580	
13,904000	0,66	-0,084810	
13,915000	0,66	-0,098000	
13,926000	0,66	-0,101600	
13,937000	0,66	-0,096000	
13,948000	0,66	-0,085840	
13,959000	0,66	-0,080510	
13,970000	0,66	-0,085540	
13,981000	0,66	-0,077260	
13,992000	0,66	-0,092420	
14,003000	0,66	-0,087400	
14,014000	0,66	-0,092510	
14,025000	0,66	-0,094570	
14,036000	0,66	-0,093820	
14,047000	0,66	-0,089720	
14,058000	0,66	-0,083350	
14,069000	0,66	-0,079470	
14,080000	0,66	-0,080310	
14,091000	0,66	-0,089200	
14,102000	0,66	-0,093580	
14,113000	0,66	-0,093470	
14,124000	0,66	-0,092740	
14,135000	0,66	-0,088880	
14,146000	0,66	-0,080420	
14,157000	0,66	-0,082190	
14,168000	0,66	-0,084880	
14,179000	0,66	-0,094580	
14,190000	0,66	-0,089270	
14,201000	0,66	-0,077950	
14,212000	0,66	-0,074660	
14,223000	0,66	-0,079630	
14,234000	0,66	-0,088580	
14,245000	0,66	-0,084160	
14,256000	0,66	-0,076230	
14,267000	0,66	-0,078550	
14,278000	0,66	-0,086790	
14,289000	0,66	-0,083450	
14,300000	0,66	-0,084500	
14,311000	0,66	-0,090830	
14,322000	0,66	-0,089240	
14,333000	0,66	-0,092860	
14,344000	0,66	-0,086060	
14,355000	0,66	-0,074280	
14,366000	0,66	-0,069480	
14,377000	0,66	-0,060010	
14,388000	0,66	-0,059600	
14,399000	0,66	-0,084770	
14,410000	0,66	-0,087450	
14,421000	0,66	-0,083290	
14,432000	0,66	-0,083140	
14,443000	0,66	-0,079590	
14,454000	0,66	-0,078360	
14,465000	0,66	-0,082590	
14,476000	0,66	-0,081990	
14,487000	0,66	-0,073830	
14,498000	0,66	-0,081440	
14,509000	0,66	-0,084220	
14,520000	0,66	-0,085090	
14,531000	0,66	-0,083470	
14,542000	0,66	-0,081420	
14,553000	0,66	-0,077630	
14,564000	0,66	-0,082410	
14,575000	0,66	-0,077850	
14,586000	0,66	-0,064640	
14,597000	0,66	-0,056880	
14,608000	0,66	-0,063040	
14,619000	0,66	-0,074840	
14,630000	0,66	-0,076490	
14,641000	0,66	-0,066930	
14,652000	0,66	-0,059630	
14,663000	0,66	-0,053900	
14,674000	0,66	-0,066000	
14,685000	0,66	-0,070520	
14,696000	0,66	-0,066930	
14,707000	0,66	-0,061790	
14,718000	0,66	-0,072330	
14,729000	0,66	-0,082480	
14,740000	0,66	-0,087120	
14,751000	0,66	-0,099430	
14,762000	0,66	-0,100740	
14,773000	0,66	-0,100470	
14,784000	0,66	-0,096850	
14,795000	0,66	-0,088710	
14,806000	0,66	-0,083360	
14,817000	0,66	-0,071420	
14,828000	0,66	-0,082560	
14,839000	0,66	-0,083300	
14,850000	0,66	-0,081930	
14,861000	0,66	-0,080720	
14,872000	0,66	-0,084130	
14,883000	0,66	-0,090000	
14,894000	0,66	-0,092190	
14,905000	0,66	-0,094830	
14,916000	0,66	-0,091420	
14,927000	0,66	-0,097700	
14,938000	0,66	-0,109200	
14,949000	0,66	-0,115570	
14,960000	0,66	-0,116560	
14,971000	0,66	-0,111460	
14,982000	0,66	-0,100190	
14,993000	0,66	-0,096600	
15,004000	0,66	-0,097810	
15,015000	0,66	-0,088660	
15,026000	0,66	-0,084010	
15,037000	0,66	-0,085840	
15,048000	0,66	-0,086230	
15,059000	0,66	-0,089030	
15,070000	0,66	-0,092690	
15,081000	0,66	-0,088870	
15,092000	0,66	-0,098280	
15,103000	0,66	-0,098300	
15,114000	0,66	-0,100360	
15,125000	0,66	-0,095490	
15,136000	0,66	-0,098180	
15,147000	0,66	-0,107790	
15,158000	0,66	-0,104370	
15,169000	0,66	-0,089280	
15,180000	0,66	-0,088390	
15,191000	0,66	-0,089270	
15,202000	0,66	-0,087650	
15,213000	0,66	-0,083410	
15,224000	0,66	-0,092610	
15,235000	0,66	-0,088940	
15,246000	0,66	-0,083420	
15,257000	0,66	-0,095280	
15,268000	0,66	-0,089300	
15,279000	0,66	-0,088120	
15,290000	0,66	-0,086760	
15,301000	0,66	-0,095400	
15,312000	0,66	-0,098970	
15,323000	0,66	-0,092070	
15,334000	0,66	-0,091160	
15,345000	0,66	-0,094440	
15,356000	0,66	-0,090160	
15,367000	0,66	-0,085820	
15,378000	0,66	-0,087560	
15,389000	0,66	-0,093160	
15,400000	0,66	-0,100920	
15,411000	0,66	-0,110100	
15,422000	0,66	-0,102000	
15,433000	0,66	-0,095570	
15,444000	0,66	-0,093550	
15,455000	0,66	-0,098230	
15,466000	0,66	-0,097040	
15,477000	0,66	-0,089960	
15,488000	0,66	-0,086100	
15,499000	0,66	-0,077930	
15,510000	0,66	-0,079110	
15,521000	0,66	-0,080150	
15,532000	0,66	-0,074890	
15,543000	0,66	-0,088670	
15,554000	0,66	-0,092520	
15,565000	0,66	-0,104350	
15,576000	0,66	-0,098120	
15,587000	0,66	-0,083950	
15,598000	0,66	-0,085970	
15,609000	0,66	-0,100220	
15,620000	0,66	-0,099650	
15,631000	0,66	-0,089750	
15,642000	0,66	-0,079290	
15,653000	0,66	-0,073200	
15,664000	0,66	-0,076030	
15,675000	0,66	-0,079800	
15,686000	0,66	-0,084210	
15,697000	0,66	-0,093740	
15,708000	0,66	-0,100290	
15,719000	0,66	-0,098180	
15,730000	0,66	-0,096140	
15,741000	0,66	-0,094960	
15,752000	0,66	-0,098300	
15,763000	0,66	-0,103640	
15,774000	0,66	-0,096070	
15,785000	0,66	-0,095170	
15,796000	0,66	-0,095650	
15,807000	0,66	-0,084820	
15,818000	0,66	-0,084820	
15,829000	0,66	-0,090390	
15,840000	0,66	-0,087140	
15,851000	0,66	-0,089600	
15,862000	0,66	-0,095920	
15,873000	0,66	-0,102060	
15,884000	0,66	-0,095700	
15,895000	0,66	-0,081840	
15,906000	0,66	-0,089350	
15,917000	0,66	-0,093550	
15,928000	0,66	-0,103750	
15,939000	0,66	-0,107920	
15,950000	0,66	-0,105280	
15,961000	0,66	-0,094480	
15,972000	0,66	-0,082000	
15,983000	0,66	-0,079010	
15,994000	0,66	-0,086870	
16,005000	0,66	-0,092180	
16,016000	0,66	-0,082870	
16,027000	0,66	-0,073450	
16,038000	0,66	-0,073680	
16,049000	0,66	-0,069120	
16,060000	0,66	-0,078550	
16,071000	0,66	-0,094790	
16,082000	0,66	-0,101920	
16,093000	0,66	-0,101350	
16,104000	0,66	-0,095010	
16,115000	0,66	-0,086930	
16,126000	0,66	-0,090720	
16,137000	0,66	-0,090920	
16,148000	0,66	-0,088390	
16,159000	0,66	-0,083170	
16,170000	0,66	-0,097830	
16,181000	0,66	-0,104640	
16,192000	0,66	-0,097580	
16,203000	0,66	-0,093880	
16,214000	0,66	-0,101190	
16,225000	0,66	-0,107390	
16,236000	0,66	-0,107470	
16,247000	0,66	-0,114360	
16,258000	0,66	-0,104600	
16,269000	0,66	-0,099480	
16,280000	0,66	-0,103860	
16,291000	0,66	-0,099210	
16,302000	0,66	-0,103310	
16,313000	0,66	-0,103290	
16,324000	0,66	-0,097220	
16,335000	0,66	-0,093690	
16,346000	0,66	-0,091010	
16,357000	0,66	-0,095330	
16,368000	0,66	-0,104340	
16,379000	0,66	-0,101220	
16,390000	0,66	-0,096070	
16,401000	0,66	-0,103730	
16,412000	0,66	-0,106600	
16,423000	0,66	-0,099540	
16,434000	0,66	-0,104320	
16,445000	0,66	-0,116110	
16,456000	0,66	-0,116320	
16,467000	0,66	-0,111210	
16,478000	0,66	-0,100020	
16,489000	0,66	-0,101790	
16,500000	0,66	-0,100750	
16,511000	0,66	-0,092550	
16,522000	0,66	-0,098190	
16,533000	0,66	-0,111510	
16,544000	0,66	-0,112110	
16,555000	0,66	-0,114600	
16,566000	0,66	-0,119590	
16,577000	0,66	-0,112620	
16,588000	0,66	-0,106070	
16,599000	0,66	-0,109800	
16,610000	0,66	-0,100940	
16,621000	0,66	-0,095310	
16,632000	0,66	-0,102670	
16,643000	0,66	-0,105400	
16,654000	0,66	-0,126020	
16,665000	0,66	-0,131610	
16,676000	0,66	-0,124600	
16,687000	0,66	-0,124300	
16,698000	0,66	-0,113210	
16,709000	0,66	-0,117980	
16,720000	0,66	-0,117260	
16,731000	0,66	-0,113240	
16,742000	0,66	-0,116660	
16,753000	0,66	-0,107940	
16,764000	0,66	-0,114140	
16,775000	0,66	-0,115820	
16,786000	0,66	-0,114170	
16,797000	0,66	-0,124070	
16,808000	0,66	-0,135940	
16,819000	0,66	-0,124710	
16,830000	0,66	-0,112860	
16,841000	0,66	-0,095170	
16,852000	0,66	-0,088420	
16,863000	0,66	-0,091480	
16,874000	0,66	-0,094290	
16,885000	0,66	-0,095550	
16,896000	0,66	-0,092500	
16,907000	0,66	-0,096950	
16,918000	0,66	-0,106750	
16,929000	0,66	-0,108780	
16,940000	0,66	-0,108400	
16,951000	0,66	-0,115580	
16,962000	0,66	-0,118930	
16,973000	0,66	-0,117150	
16,984000	0,66	-0,119050	
16,995000	0,66	-0,115090	
17,006000	0,66	-0,118380	
17,017000	0,66	-0,112210	
17,028000	0,66	-0,102490	
17,039000	0,66	-0,104720	
17,050000	0,66	-0,104370	
17,061000	0,66	-0,098700	
17,072000	0,66	-0,099250	
17,083000	0,66	-0,107970	
17,094000	0,66	-0,118130	
17,105000	0,66	-0,121790	
17,116000	0,66	-0,114340	
17,127000	0,66	-0,109610	
17,138000	0,66	-0,116530	
17,149000	0,66	-0,111690	
17,160000	0,66	-0,102170	
17,171000	0,66	-0,109560	
17,182000	0,66	-0,111220	
17,193000	0,66	-0,107050	
17,204000	0,66	-0,107890	
17,215000	0,66	-0,119510	
17,226000	0,66	-0,122080	
17,237000	0,66	-0,120520	
17,248000	0,66	-0,113820	
17,259000	0,66	-0,114100	
17,270000	0,66	-0,107350	
17,281000	0,66	-0,113290	
17,292000	0,66	-0,112850	
17,303000	0,66	-0,111450	
17,314000	0,66	-0,112040	
17,325000	0,66	-0,100060	
17,336000	0,66	-0,096110	
17,347000	0,66	-0,092680	
17,358000	0,66	-0,097110	
17,369000	0,66	-0,102840	
17,380000	0,66	-0,105480	
17,391000	0,66	-0,110130	
17,402000	0,66	-0,110510	
17,413000	0,66	-0,111990	
17,424000	0,66	-0,107800	
17,435000	0,66	-0,114170	
17,446000	0,66	-0,107180	
17,457000	0,66	-0,110960	
17,468000	0,66	-0,110320	
17,479000	0,66	-0,111020	
17,490000	0,66	-0,107740	
17,501000	0,66	-0,121510	
17,512000	0,66	-0,126740	
17,523000	0,66	-0,125260	
17,534000	0,66	-0,117020	
17,545000	0,66	-0,113340	
17,556000	0,66	-0,107250	
17,567000	0,66	-0,106910	
17,578000	0,66	-0,099480	
17,589000	0,66	-0,101340	
17,600000	0,66	-0,100840	
17,611000	0,66	-0,107080	
17,622000	0,66	-0,107140	
17,633000	0,66	-0,109900	
17,644000	0,66	-0,113430	
17,655000	0,66	-0,119150	
17,666000	0,66	-0,123550	
17,677000	0,66	-0,116890	
17,688000	0,66	-0,117890	
17,699000	0,66	-0,129200	
17,710000	0,66	-0,132230	
17,721000	0,66	-0,132240	
17,732000	0,66	-0,130930	
17,743000	0,66	-0,127660	
17,754000	0,66	-0,121610	
17,765000	0,66	-0,125630	
17,776000	0,66	-0,126780	
17,787000	0,66	-0,117740	
17,798000	0,66	-0,118350	
17,809000	0,66	-0,121380	
17,820000	0,66	-0,119730	
17,831000	0,66	-0,113890	
17,842000	0,66	-0,114400	
17,853000	0,66	-0,116350	
17,864000	0,66	-0,120390	
17,875000	0,66	-0,126830	
17,886000	0,66	-0,118140	
17,897000	0,66	-0,118080	
17,908000	0,66	-0,137050	
17,919000	0,66	-0,151040	
17,930000	0,66	-0,148390	
17,941000	0,66	-0,145580	
17,952000	0,66	-0,137380	
17,963000	0,66	-0,133330	
17,974000	0,66	-0,119580	
17,985000	0,66	-0,109500	
17,996000	0,66	-0,101160	
18,007000	0,66	-0,097230	
18,018000	0,66	-0,094820	
18,029000	0,66	-0,114750	
18,040000	0,66	-0,117360	
18,051000	0,66	-0,109420	
18,062000	0,66	-0,105210	
18,073000	0,66	-0,115100	
18,084000	0,66	-0,101570	
18,095000	0,66	-0,095030	
18,106000	0,66	-0,099260	
18,117000	0,66	-0,110040	
18,128000	0,66	-0,109740	
18,139000	0,66	-0,104570	
18,150000	0,66	-0,110550	
18,161000	0,66	-0,103530	
18,172000	0,66	-0,103080	
18,183000	0,66	-0,113310	
18,194000	0,66	-0,125530	
18,205000	0,66	-0,122380	
18,216000	0,66	-0,125190	
18,227000	0,66	-0,133390	
18,238000	0,66	-0,135770	
18,249000	0,66	-0,142140	
18,260000	0,66	-0,132710	
18,271000	0,66	-0,118320	
18,282000	0,66	-0,112380	
18,293000	0,66	-0,102200	
18,304000	0,66	-0,102820	
18,315000	0,66	-0,110560	
18,326000	0,66	-0,107280	
18,337000	0,66	-0,099080	
18,348000	0,66	-0,101440	
18,359000	0,66	-0,109550	
18,370000	0,66	-0,117360	
18,381000	0,66	-0,117130	
18,392000	0,66	-0,109050	
18,403000	0,66	-0,102790	
18,414000	0,66	-0,102480	
18,425000	0,66	-0,098720	
18,436000	0,66	-0,097220	
18,447000	0,66	-0,101990	
18,458000	0,66	-0,108770	
18,469000	0,66	-0,117230	
18,480000	0,66	-0,124400	
18,491000	0,66	-0,118140	
18,502000	0,66	-0,114470	
18,513000	0,66	-0,119150	
18,524000	0,66	-0,116920	
18,535000	0,66	-0,121490	
18,546000	0,66	-0,120570	
18,557000	0,66	-0,115600	
18,568000	0,66	-0,108120	
18,579000	0,66	-0,110280	
18,590000	0,66	-0,119580	
18,601000	0,66	-0,112760	
18,612000	0,66	-0,114650	
18,623000	0,66	-0,107180	
18,634000	0,66	-0,107550	
18,645000	0,66	-0,099030	
18,656000	0,66	-0,095720	
18,667000	0,66	-0,114180	
18,678000	0,66	-0,126410	
18,689000	0,66	-0,123540	
18,700000	0,66	-0,119820	
18,711000	0,66	-0,118780	
18,722000	0,66	-0,108640	
18,733000	0,66	-0,119560	
18,744000	0,66	-0,115800	
18,755000	0,66	-0,114950	
18,766000	0,66	-0,123950	
18,777000	0,66	-0,130420	
18,788000	0,66	-0,126230	
18,799000	0,66	-0,107110	
18,810000	0,66	-0,108470	
18,821000	0,66	-0,111230	
18,832000	0,66	-0,094880	
18,843000	0,66	-0,091620	
18,854000	0,66	-0,107130	
18,865000	0,66	-0,107120	
18,876000	0,66	-0,112230	
18,887000	0,66	-0,098190	
18,898000	0,66	-0,099310	
18,909000	0,66	-0,112260	
18,920000	0,66	-0,118810	
18,931000	0,66	-0,129050	
18,942000	0,66	-0,131270	
18,953000	0,66	-0,121890	
18,964000	0,66	-0,119220	
18,975000	0,66	-0,122420	
18,986000	0,66	-0,127140	
18,997000	0,66	-0,119290	
19,008000	0,66	-0,117260	
19,019000	0,66	-0,113130	
19,030000	0,66	-0,110280	
19,041000	0,66	-0,119910	
19,052000	0,66	-0,115160	
19,063000	0,66	-0,101000	
19,074000	0,66	-0,099320	
19,085000	0,66	-0,110710	
19,096000	0,66	-0,115040	
19,107000	0,66	-0,115770	
19,118000	0,66	-0,116380	
19,129000	0,66	-0,108580	
19,140000	0,66	-0,109810	
19,151000	0,66	-0,114860	
19,162000	0,66	-0,117020	
19,173000	0,66	-0,119710	
19,184000	0,66	-0,121730	
19,195000	0,66	-0,133310	
19,206000	0,66	-0,140380	
19,217000	0,66	-0,133880	
19,228000	0,66	-0,127770	
19,239000	0,66	-0,125170	
19,250000	0,66	-0,126170	
19,261000	0,66	-0,128930	
19,272000	0,66	-0,137690	
19,283000	0,66	-0,134510	
19,294000	0,66	-0,116570	
19,305000	0,66	-0,124610	
19,316000	0,66	-0,120290	
19,327000	0,66	-0,118850	
19,338000	0,66	-0,125650	
19,349000	0,66	-0,129670	
19,360000	0,66	-0,137600	
19,371000	0,66	-0,143830	
19,382000	0,66	-0,143640	
19,393000	0,66	-0,141000	
19,404000	0,66	-0,138720	
19,415000	0,66	-0,118810	
19,426000	0,66	-0,117450	
19,437000	0,66	-0,122090	
19,448000	0,66	-0,135530	
19,459000	0,66	-0,137660	
19,470000	0,66	-0,132310	
19,481000	0,66	-0,126060	
19,492000	0,66	-0,136080	
19,503000	0,66	-0,140610	
19,514000	0,66	-0,140450	
19,525000	0,66	-0,126370	
19,536000	0,66	-0,129420	
19,547000	0,66	-0,135390	
19,558000	0,66	-0,139920	
19,569000	0,66	-0,130620	
19,580000	0,66	-0,123790	
19,591000	0,66	-0,131210	
19,602000	0,66	-0,124660	
19,613000	0,66	-0,113590	
19,624000	0,66	-0,116520	
19,635000	0,66	-0,114390	
19,646000	0,66	-0,117300	
19,657000	0,66	-0,122580	
19,668000	0,66	-0,133130	
19,679000	0,66	-0,132840	
19,690000	0,66	-0,127340	
19,701000	0,66	-0,130920	
19,712000	0,66	-0,134310	
19,723000	0,66	-0,131030	
19,734000	0,66	-0,129880	
19,745000	0,66	-0,140310	
19,756000	0,66	-0,134940	
19,767000	0,66	-0,142340	
19,778000	0,66	-0,148230	
19,789000	0,66	-0,151250	
19,800000	0,66	-0,144150	
19,811000	0,66	-0,133180	
19,822000	0,66	-0,126460	
19,833000	0,66	-0,126200	
19,844000	0,66	-0,128580	
19,855000	0,66	-0,127560	
19,866000	0,66	-0,130270	
19,877000	0,66	-0,133420	
19,888000	0,66	-0,134870	
19,899000	0,66	-0,129440	
19,910000	0,66	-0,124610	
19,921000	0,66	-0,131260	
19,932000	0,66	-0,127350	
19,943000	0,66	-0,122980	
19,954000	0,66	-0,123840	
19,965000	0,66	-0,130550	
19,976000	0,66	-0,142630	
19,987000	0,66	-0,138200	
19,998000	0,66	-0,138430	
20,009000	0,66	-0,136870	
20,020000	0,66	-0,131910	
20,031000	0,66	-0,119380	
20,042000	0,66	-0,117300	
20,053000	0,66	-0,117730	
20,064000	0,66	-0,133490	
20,075000	0,66	-0,132560	
20,086000	0,66	-0,126820	
20,097000	0,66	-0,120570	
20,108000	0,66	-0,127450	
20,119000	0,66	-0,136710	
20,130000	0,66	-0,134280	
20,141000	0,66	-0,139800	
20,152000	0,66	-0,139960	
20,163000	0,66	-0,136980	
20,174000	0,66	-0,140450	
20,185000	0,66	-0,147820	
20,196000	0,66	-0,149440	
20,207000	0,66	-0,148880	
20,218000	0,66	-0,149370	
20,229000	0,66	-0,158100	
20,240000	0,66	-0,148570	
20,251000	0,66	-0,136990	
20,262000	0,66	-0,126200	
20,273000	0,66	-0,120070	
20,284000	0,66	-0,111160	
20,295000	0,66	-0,114330	
20,306000	0,66	-0,117020	
20,317000	0,66	-0,124690	
20,328000	0,66	-0,136550	
20,339000	0,66	-0,155520	
20,350000	0,66	-0,161630	
20,361000	0,66	-0,152220	
20,372000	0,66	-0,151340	
20,383000	0,66	-0,146390	
20,394000	0,66	-0,130580	
20,405000	0,66	-0,119980	
20,416000	0,66	-0,124520	
20,427000	0,66	-0,132950	
20,438000	0,66	-0,134510	
20,449000	0,66	-0,130010	
20,460000	0,66	-0,128360	
20,471000	0,66	-0,135770	
20,482000	0,66	-0,133680	
20,493000	0,66	-0,125450	
20,504000	0,66	-0,122170	
20,515000	0,66	-0,129200	
20,526000	0,66	-0,129720	
20,537000	0,66	-0,118690	
20,548000	0,66	-0,118260	
20,559000	0,66	-0,128890	
20,570000	0,66	-0,131620	
20,581000	0,66	-0,128470	
20,592000	0,66	-0,131990	
20,603000	0,66	-0,134980	
20,614000	0,66	-0,127300	
20,625000	0,66	-0,123880	
20,636000	0,66	-0,139390	
20,647000	0,66	-0,145380	
20,658000	0,66	-0,134730	
20,669000	0,66	-0,133650	
20,680000	0,66	-0,130600	
20,691000	0,66	-0,119850	
20,702000	0,66	-0,118190	
20,713000	0,66	-0,122340	
20,724000	0,66	-0,129660	
20,735000	0,66	-0,130340	
20,746000	0,66	-0,126220	
20,757000	0,66	-0,120380	
20,768000	0,66	-0,124700	
20,779000	0,66	-0,132620	
20,790000	0,66	-0,147460	
20,801000	0,66	-0,149880	
20,812000	0,66	-0,141050	
20,823000	0,66	-0,143180	
20,834000	0,66	-0,141860	
20,845000	0,66	-0,151160	
20,856000	0,66	-0,143200	
20,867000	0,66	-0,140750	
20,878000	0,66	-0,138530	
20,889000	0,66	-0,139260	
20,900000	0,66	-0,144660	
20,911000	0,66	-0,139520	
20,922000	0,66	-0,136950	
20,933000	0,66	-0,143730	
20,944000	0,66	-0,139880	
20,955000	0,66	-0,152610	
20,966000	0,66	-0,139520	
20,977000	0,66	-0,143910	
20,988000	0,66	-0,143930	
20,999000	0,66	-0,131050	
21,010000	0,66	-0,126760	
21,021000	0,66	-0,134230	
21,032000	0,66	-0,129020	
21,043000	0,66	-0,137670	
21,054000	0,66	-0,141710	
21,065000	0,66	-0,137120	
21,076000	0,66	-0,130100	
21,087000	0,66	-0,134990	
21,098000	0,66	-0,130410	
21,109000	0,66	-0,120550	
21,120000	0,66	-0,124610	
21,131000	0,66	-0,126010	
21,142000	0,66	-0,135680	
21,153000	0,66	-0,134570	
21,164000	0,66	-0,119830	
21,175000	0,66	-0,118070	
21,186000	0,66	-0,122900	
21,197000	0,66	-0,118040	
21,208000	0,66	-0,113630	
21,219000	0,66	-0,120470	
21,230000	0,66	-0,131750	
21,241000	0,66	-0,134060	
21,252000	0,66	-0,127270	
21,263000	0,66	-0,125170	
21,274000	0,66	-0,128500	
21,285000	0,66	-0,131170	
21,296000	0,66	-0,142940	
21,307000	0,66	-0,152130	
21,318000	0,66	-0,146080	
21,329000	0,66	-0,144180	
21,340000	0,66	-0,138650	
21,351000	0,66	-0,135930	
21,362000	0,66	-0,136550	
21,373000	0,66	-0,130190	
21,384000	0,66	-0,123780	
21,395000	0,66	-0,128600	
21,406000	0,66	-0,134130	
21,417000	0,66	-0,136660	
21,428000	0,66	-0,133240	
21,439000	0,66	-0,134000	
21,450000	0,66	-0,133410	
21,461000	0,66	-0,128300	
21,472000	0,66	-0,134940	
21,483000	0,66	-0,147070	
21,494000	0,66	-0,141430	
21,505000	0,66	-0,140240	
21,516000	0,66	-0,132020	
21,527000	0,66	-0,130220	
21,538000	0,66	-0,138980	
21,549000	0,66	-0,132760	
21,560000	0,66	-0,136470	
21,571000	0,66	-0,133160	
21,582000	0,66	-0,135210	
21,593000	0,66	-0,141740	
21,604000	0,66	-0,130210	
21,615000	0,66	-0,127800	
21,626000	0,66	-0,128090	
21,637000	0,66	-0,137120	
21,648000	0,66	-0,139910	
21,659000	0,66	-0,140940	
21,670000	0,66	-0,135380	
21,681000	0,66	-0,139870	
21,692000	0,66	-0,144360	
21,703000	0,66	-0,133490	
21,714000	0,66	-0,130750	
21,725000	0,66	-0,141230	
21,736000	0,66	-0,139720	
21,747000	0,66	-0,147800	
21,758000	0,66	-0,152140	
21,769000	0,66	-0,153610	
21,780000	0,66	-0,152390	
21,791000	0,66	-0,161110	
21,802000	0,66	-0,150280	
21,813000	0,66	-0,145870	
21,824000	0,66	-0,135470	
21,835000	0,66	-0,140390	
21,846000	0,66	-0,147150	
21,857000	0,66	-0,142210	
21,868000	0,66	-0,134880	
21,879000	0,66	-0,134100	
21,890000	0,66	-0,139260	
21,901000	0,66	-0,136890	
21,912000	0,66	-0,131360	
21,923000	0,66	-0,128930	
21,934000	0,66	-0,126350	
21,945000	0,66	-0,126160	
21,956000	0,66	-0,132800	
21,967000	0,66	-0,140820	
21,978000	0,66	-0,143140	
21,989000	0,66	-0,140180	
22,000000	0,66	-0,133710	
22,011000	0,66	-0,137360	
22,022000	0,66	-0,150600	
22,033000	0,66	-0,153340	
22,044000	0,66	-0,152530	
22,055000	0,66	-0,158310	
22,066000	0,66	-0,163060	
22,077000	0,66	-0,149910	
22,088000	0,66	-0,134260	
22,099000	0,66	-0,132420	
22,110000	0,66	-0,140820	
22,121000	0,66	-0,136320	
22,132000	0,66	-0,130000	
22,143000	0,66	-0,141230	
22,154000	0,66	-0,147850	
22,165000	0,66	-0,147730	
22,176000	0,66	-0,146540	
22,187000	0,66	-0,132180	
22,198000	0,66	-0,125000	
22,209000	0,66	-0,129840	
22,220000	0,66	-0,133000	
22,231000	0,66	-0,125210	
22,242000	0,66	-0,105680	
22,253000	0,66	-0,110870	
22,264000	0,66	-0,113930	
22,275000	0,66	-0,123330	
22,286000	0,66	-0,142140	
22,297000	0,66	-0,151510	
22,308000	0,66	-0,154770	
22,319000	0,66	-0,154470	
22,330000	0,66	-0,147120	
22,341000	0,66	-0,151110	
22,352000	0,66	-0,145380	
22,363000	0,66	-0,144830	
22,374000	0,66	-0,150800	
22,385000	0,66	-0,142870	
22,396000	0,66	-0,136700	
22,407000	0,66	-0,134420	
22,418000	0,66	-0,140730	
22,429000	0,66	-0,140670	
22,440000	0,66	-0,140600	
22,451000	0,66	-0,138540	
22,462000	0,66	-0,138750	
22,473000	0,66	-0,139520	
22,484000	0,66	-0,140020	
22,495000	0,66	-0,149330	
22,506000	0,66	-0,150960	
22,517000	0,66	-0,148430	
22,528000	0,66	-0,161710	
22,539000	0,66	-0,164460	
22,550000	0,66	-0,148580	
22,561000	0,66	-0,147490	
22,572000	0,66	-0,152170	
22,583000	0,66	-0,154060	
22,594000	0,66	-0,160480	
22,605000	0,66	-0,162870	
22,616000	0,66	-0,157040	
22,627000	0,66	-0,142900	
22,638000	0,66	-0,132590	
22,649000	0,66	-0,132900	
22,660000	0,66	-0,139180	
22,671000	0,66	-0,148050	
22,682000	0,66	-0,139770	
22,693000	0,66	-0,126860	
22,704000	0,66	-0,132530	
22,715000	0,66	-0,130210	
22,726000	0,66	-0,121620	
22,737000	0,66	-0,126820	
22,748000	0,66	-0,121400	
22,759000	0,66	-0,109920	
22,770000	0,66	-0,109910	
22,781000	0,66	-0,109190	
22,792000	0,66	-0,107870	
22,803000	0,66	-0,101290	
22,814000	0,66	-0,086420	
22,825000	0,66	-0,079870	
22,836000	0,66	-0,081280	
22,847000	0,66	-0,080990	
22,858000	0,66	-0,093930	
22,869000	0,66	-0,101030	
22,880000	0,66	-0,105790	
22,891000	0,66	-0,102750	
22,902000	0,66	-0,109360	
22,913000	0,66	-0,128470	
22,924000	0,66	-0,138060	
22,935000	0,66	-0,141620	
22,946000	0,66	-0,128520	
22,957000	0,66	-0,132700	
22,968000	0,66	-0,139270	
22,979000	0,66	-0,133290	
22,990000	0,66	-0,122560	
23,001000	0,66	-0,130010	
23,012000	0,66	-0,128120	
23,023000	0,66	-0,146030	
23,034000	0,66	-0,148060	
23,045000	0,66	-0,153930	
23,056000	0,66	-0,149050	
23,067000	0,66	-0,146890	
23,078000	0,66	-0,150230	
23,089000	0,66	-0,156460	
23,100000	0,66	-0,159490	
23,111000	0,66	-0,145250	
23,122000	0,66	-0,147070	
23,133000	0,66	-0,148280	
23,144000	0,66	-0,160410	
23,155000	0,66	-0,172150	
23,166000	0,66	-0,157930	
23,177000	0,66	-0,149890	
23,188000	0,66	-0,152010	
23,199000	0,66	-0,157430	
23,210000	0,66	-0,148200	
23,221000	0,66	-0,136910	
23,232000	0,66	-0,135080	
23,243000	0,66	-0,129630	
23,254000	0,66	-0,135610	
23,265000	0,66	-0,139110	
23,276000	0,66	-0,135070	
23,287000	0,66	-0,136860	
23,298000	0,66	-0,142180	
23,309000	0,66	-0,144510	
23,320000	0,66	-0,142450	
23,331000	0,66	-0,146730	
23,342000	0,66	-0,151740	
23,353000	0,66	-0,154260	
23,364000	0,66	-0,150580	
23,375000	0,66	-0,146130	
23,386000	0,66	-0,151780	
23,397000	0,66	-0,151420	
23,408000	0,66	-0,152530	
23,419000	0,66	-0,150210	
23,430000	0,66	-0,145160	
23,441000	0,66	-0,136540	
23,452000	0,66	-0,128780	
23,463000	0,66	-0,136460	
23,474000	0,66	-0,148750	
23,485000	0,66	-0,158010	
23,496000	0,66	-0,152880	
23,507000	0,66	-0,148100	
23,518000	0,66	-0,146490	
23,529000	0,66	-0,143060	
23,540000	0,66	-0,142230	
23,551000	0,66	-0,149110	
23,562000	0,66	-0,157610	
23,573000	0,66	-0,145820	
23,584000	0,66	-0,141530	
23,595000	0,66	-0,143380	
23,606000	0,66	-0,150650	
23,617000	0,66	-0,145550	
23,628000	0,66	-0,140910	
23,639000	0,66	-0,142730	
23,650000	0,66	-0,141810	
23,661000	0,66	-0,145820	
23,672000	0,66	-0,143340	
23,683000	0,66	-0,135840	
23,694000	0,66	-0,129610	
23,705000	0,66	-0,131750	
23,716000	0,66	-0,122580	
23,727000	0,66	-0,120380	
23,738000	0,66	-0,115730	
23,749000	0,66	-0,119540	
23,760000	0,66	-0,116880	
23,771000	0,66	-0,095880	
23,782000	0,66	-0,079370	
23,793000	0,66	-0,077540	
23,804000	0,66	-0,073180	
23,815000	0,66	-0,069920	
23,826000	0,66	-0,069110	
23,837000	0,66	-0,055510	
23,848000	0,66	-0,043370	
23,859000	0,66	-0,041450	
23,870000	0,66	-0,024930	
23,881000	0,66	-0,004580	
23,892000	0,66	0,013350	
23,903000	0,66	0,019030	
23,914000	0,66	0,037650	
23,925000	0,66	0,062180	
23,936000	0,66	0,074350	
23,947000	0,66	0,071200	
23,958000	0,66	0,060770	
23,969000	0,66	0,060000	
23,980000	0,66	0,064880	
23,991000	0,66	0,067220	
24,002000	0,66	0,065120	
24,013000	0,66	0,053490	
24,024000	0,66	0,044520	
24,035000	0,66	0,055040	
24,046000	0,66	0,074600	
24,057000	0,66	0,106000	
24,068000	0,66	0,179490	
24,079000	0,66	0,338240	
24,090000	0,66	0,648120	
24,101000	0,66	1,202400	
24,112000	0,66	2,168050	
24,123000	0,66	3,789220	
24,134000	0,66	6,362370	
24,145000	0,66	9,821200	
24,156000	0,66	13,622540	
24,167000	0,66	17,215850	
24,178000	0,66	20,170180	
24,189000	0,66	22,329390	
24,200000	0,66	23,709200	
24,211000	0,66	24,438600	
24,222000	0,66	24,646210	
24,233000	0,66	24,455340	
24,244000	0,66	23,954390	
24,255000	0,66	23,212210	
24,266000	0,66	22,306390	
24,277000	0,66	21,265890	
24,288000	0,66	20,146190	
24,299000	0,66	18,988120	
24,310000	0,66	17,784830	
24,321000	0,66	16,578550	
24,332000	0,66	15,373270	
24,343000	0,66	14,188980	
24,354000	0,66	13,047230	
24,365000	0,66	11,956090	
24,376000	0,66	10,913500	
24,387000	0,66	9,928720	
24,398000	0,66	9,005420	
24,409000	0,66	8,142980	
24,420000	0,66	7,344090	
24,431000	0,66	6,645900	
24,442000	0,66	6,011440	
24,453000	0,66	5,458210	
24,464000	0,66	4,949560	
24,475000	0,66	4,496950	
24,486000	0,66	4,089040	
24,497000	0,66	3,721310	
24,508000	0,66	3,388240	
24,519000	0,66	3,068530	
24,530000	0,66	2,769880	
24,541000	0,66	2,489220	
24,552000	0,66	2,233760	
24,563000	0,66	1,990910	
24,574000	0,66	1,762830	
24,585000	0,66	1,552260	
24,596000	0,66	1,349710	
24,607000	0,66	1,171530	
24,618000	0,66	1,019360	
24,629000	0,66	0,898230	
24,640000	0,66	0,792550	
24,651000	0,66	0,697540	
24,662000	0,66	0,611030	
24,673000	0,66	0,530700	
24,684000	0,66	0,469480	
24,695000	0,66	0,412260	
24,706000	0,66	0,364100	
24,717000	0,66	0,327000	
24,728000	0,66	0,298100	
24,739000	0,66	0,274280	
24,750000	0,66	0,244480	
24,761000	0,66	0,224100	
24,772000	0,66	0,203730	
24,783000	0,66	0,174920	
24,794000	0,66	0,156220	
24,805000	0,66	0,132900	
24,816000	0,66	0,106180	
24,827000	0,66	0,089560	
24,838000	0,66	0,068910	
24,849000	0,66	0,043340	
24,860000	0,66	0,021280	
24,871000	0,66	0,002710	
24,882000	0,66	-0,011330	
24,893000	0,66	-0,008260	
24,904000	0,66	-0,013820	
24,915000	0,66	-0,031000	
24,926000	0,66	-0,041210	
24,937000	0,66	-0,042580	
24,948000	0,66	-0,042950	
24,959000	0,66	-0,052240	
24,970000	0,66	-0,069410	
24,981000	0,66	-0,068500	
24,992000	0,66	-0,067970	
25,003000	0,66	-0,063140	
25,014000	0,66	-0,053960	
25,025000	0,66	-0,052320	
25,036000	0,66	-0,063640	
25,047000	0,66	-0,070440	
25,058000	0,66	-0,073040	
25,069000	0,66	-0,082350	
25,080000	0,66	-0,085600	
25,091000	0,66	-0,099790	
25,102000	0,66	-0,111600	
25,113000	0,66	-0,108720	
25,124000	0,66	-0,105880	
25,135000	0,66	-0,109820	
25,146000	0,66	-0,107750	
25,157000	0,66	-0,112780	
25,168000	0,66	-0,119330	
25,179000	0,66	-0,117310	
25,190000	0,66	-0,121510	
25,201000	0,66	-0,115940	
25,212000	0,66	-0,113230	
25,223000	0,66	-0,104440	
25,234000	0,66	-0,098290	
25,245000	0,66	-0,088810	
25,256000	0,66	-0,076430	
25,267000	0,66	-0,070580	
25,278000	0,66	-0,058400	
25,289000	0,66	-0,046650	
25,300000	0,66	-0,036800	
25,311000	0,66	-0,036260	
25,322000	0,66	-0,029510	
25,333000	0,66	-0,023060	
25,344000	0,66	-0,030980	
25,355000	0,66	-0,053350	
25,366000	0,66	-0,063080	
25,377000	0,66	-0,065540	
25,388000	0,66	-0,069990	
25,399000	0,66	-0,071370	
25,410000	0,66	-0,077000	
25,421000	0,66	-0,093490	
25,432000	0,66	-0,104970	
25,443000	0,66	-0,107840	
25,454000	0,66	-0,122670	
25,465000	0,66	-0,137330	
25,476000	0,66	-0,140690	
25,487000	0,66	-0,144370	
25,498000	0,66	-0,150980	
25,509000	0,66	-0,152070	
25,520000	0,66	-0,146080	
25,531000	0,66	-0,142490	
25,542000	0,66	-0,139110	
25,553000	0,66	-0,141510	
25,564000	0,66	-0,147910	
25,575000	0,66	-0,149860	
25,586000	0,66	-0,161470	
25,597000	0,66	-0,180940	
25,608000	0,66	-0,177180	
25,619000	0,66	-0,166670	
25,630000	0,66	-0,156290	
25,641000	0,66	-0,147890	
25,652000	0,66	-0,138600	
25,663000	0,66	-0,139980	
25,674000	0,66	-0,152710	
25,685000	0,66	-0,156930	
25,696000	0,66	-0,150270	
25,707000	0,66	-0,138860	
25,718000	0,66	-0,136970	
25,729000	0,66	-0,154460	
25,740000	0,66	-0,158060	
25,751000	0,66	-0,144080	
25,762000	0,66	-0,141300	
25,773000	0,66	-0,141940	
25,784000	0,66	-0,150210	
25,795000	0,66	-0,163800	
25,806000	0,66	-0,169070	
25,817000	0,66	-0,168940	
25,828000	0,66	-0,161540	
25,839000	0,66	-0,151100	
25,850000	0,66	-0,152080	
25,861000	0,66	-0,150790	
25,872000	0,66	-0,145080	
25,883000	0,66	-0,139920	
25,894000	0,66	-0,142580	
25,905000	0,66	-0,150280	
25,916000	0,66	-0,137560	
25,927000	0,66	-0,142250	
25,938000	0,66	-0,142390	
25,949000	0,66	-0,142690	
25,960000	0,66	-0,145480	
25,971000	0,66	-0,141340	
25,982000	0,66	-0,145930	
25,993000	0,66	-0,152760	
26,004000	0,66	-0,153970	
26,015000	0,66	-0,153960	
26,026000	0,66	-0,145350	
26,037000	0,66	-0,146630	
26,048000	0,66	-0,160100	
26,059000	0,66	-0,172860	
26,070000	0,66	-0,179300	
26,081000	0,66	-0,173800	
26,092000	0,66	-0,156360	
26,103000	0,66	-0,146750	
26,114000	0,66	-0,143740	
26,125000	0,66	-0,143160	
26,136000	0,66	-0,146120	
26,147000	0,66	-0,141120	
26,158000	0,66	-0,141830	
26,169000	0,66	-0,139600	
26,180000	0,66	-0,129160	
26,191000	0,66	-0,136600	
26,202000	0,66	-0,140550	
26,213000	0,66	-0,139560	
26,224000	0,66	-0,146030	
26,235000	0,66	-0,152900	
26,246000	0,66	-0,147200	
26,257000	0,66	-0,154760	
26,268000	0,66	-0,157200	
26,279000	0,66	-0,157120	
26,290000	0,66	-0,160170	
26,301000	0,66	-0,154630	
26,312000	0,66	-0,153830	
26,323000	0,66	-0,154080	
26,334000	0,66	-0,167930	
26,345000	0,66	-0,169830	
26,356000	0,66	-0,173980	
26,367000	0,66	-0,176870	
26,378000	0,66	-0,172910	
26,389000	0,66	-0,166610	
26,400000	0,66	-0,152080	
26,411000	0,66	-0,164280	
26,422000	0,66	-0,176050	
26,433000	0,66	-0,184660	
26,444000	0,66	-0,182870	
26,455000	0,66	-0,193810	
26,466000	0,66	-0,185350	
26,477000	0,66	-0,179280	
26,488000	0,66	-0,186190	
26,499000	0,66	-0,180860	
26,510000	0,66	-0,179200	
26,521000	0,66	-0,176800	
26,532000	0,66	-0,170740	
26,543000	0,66	-0,174440	
26,554000	0,66	-0,173330	
26,565000	0,66	-0,159220	
26,576000	0,66	-0,159470	
26,587000	0,66	-0,164210	
26,598000	0,66	-0,171140	
26,609000	0,66	-0,178050	
26,620000	0,66	-0,173450	
26,631000	0,66	-0,155160	
26,642000	0,66	-0,159100	
26,653000	0,66	-0,163230	
26,664000	0,66	-0,166570	
26,675000	0,66	-0,160030	
26,686000	0,66	-0,165940	
26,697000	0,66	-0,168410	
26,708000	0,66	-0,170160	
26,719000	0,66	-0,175940	
26,730000	0,66	-0,178410	
26,741000	0,66	-0,182520	
26,752000	0,66	-0,184610	
26,763000	0,66	-0,176280	
26,774000	0,66	-0,167890	
26,785000	0,66	-0,170300	
26,796000	0,66	-0,174050	
26,807000	0,66	-0,177580	
26,818000	0,66	-0,177060	
26,829000	0,66	-0,168210	
26,840000	0,66	-0,163990	
26,851000	0,66	-0,161400	
26,862000	0,66	-0,160890	
26,873000	0,66	-0,169260	
26,884000	0,66	-0,175830	
26,895000	0,66	-0,176950	
26,906000	0,66	-0,171830	
26,917000	0,66	-0,174480	
26,928000	0,66	-0,181190	
26,939000	0,66	-0,176440	
26,950000	0,66	-0,174190	
26,961000	0,66	-0,170380	
26,972000	0,66	-0,168970	
26,983000	0,66	-0,162710	
26,994000	0,66	-0,166680	
27,005000	0,66	-0,171680	
27,016000	0,66	-0,165050	
27,027000	0,66	-0,165780	
27,038000	0,66	-0,169940	
27,049000	0,66	-0,154490	
27,060000	0,66	-0,157040	
27,071000	0,66	-0,169510	
27,082000	0,66	-0,178870	
27,093000	0,66	-0,166970	
27,104000	0,66	-0,171030	
27,115000	0,66	-0,176240	
27,126000	0,66	-0,181890	
27,137000	0,66	-0,179090	
27,148000	0,66	-0,187660	
27,159000	0,66	-0,181390	
27,170000	0,66	-0,184410	
27,181000	0,66	-0,177350	
27,192000	0,66	-0,178220	
27,203000	0,66	-0,182960	
27,214000	0,66	-0,179470	
27,225000	0,66	-0,181140	
27,236000	0,66	-0,172510	
27,247000	0,66	-0,168570	
27,258000	0,66	-0,172590	
27,269000	0,66	-0,185000	
27,280000	0,66	-0,180540	
27,291000	0,66	-0,174240	
27,302000	0,66	-0,175880	
27,313000	0,66	-0,177570	
27,324000	0,66	-0,181490	
27,335000	0,66	-0,184790	
27,346000	0,66	-0,181980	
27,357000	0,66	-0,182120	
27,368000	0,66	-0,184660	
27,379000	0,66	-0,189980	
27,390000	0,66	-0,195250	
27,401000	0,66	-0,195270	
27,412000	0,66	-0,199290	
27,423000	0,66	-0,193970	
27,434000	0,66	-0,188840	
27,445000	0,66	-0,190190	
27,456000	0,66	-0,182040	
27,467000	0,66	-0,163930	
27,478000	0,66	-0,157790	
27,489000	0,66	-0,165740	
27,500000	0,66	-0,168870	
27,511000	0,66	-0,177210	
27,522000	0,66	-0,185060	
27,533000	0,66	-0,183710	
27,544000	0,66	-0,182980	
27,555000	0,66	-0,178210	
27,566000	0,66	-0,175660	
27,577000	0,66	-0,171340	
27,588000	0,66	-0,169860	
27,599000	0,66	-0,171340	
27,610000	0,66	-0,178760	
27,621000	0,66	-0,187980	
27,632000	0,66	-0,190430	
27,643000	0,66	-0,192070	
27,654000	0,66	-0,190170	
27,665000	0,66	-0,181350	
27,676000	0,66	-0,188260	
27,687000	0,66	-0,183770	
27,698000	0,66	-0,174270	
27,709000	0,66	-0,168290	
27,720000	0,66	-0,162830	
27,731000	0,66	-0,162150	
27,742000	0,66	-0,162310	
27,753000	0,66	-0,178890	
27,764000	0,66	-0,187560	
27,775000	0,66	-0,190920	
27,786000	0,66	-0,190880	
27,797000	0,66	-0,189390	
27,808000	0,66	-0,192540	
27,819000	0,66	-0,191020	
27,830000	0,66	-0,186370	
27,841000	0,66	-0,182750	
27,852000	0,66	-0,190430	
27,863000	0,66	-0,176720	
27,874000	0,66	-0,181090	
27,885000	0,66	-0,175300	
27,896000	0,66	-0,168010	
27,907000	0,66	-0,177790	
27,918000	0,66	-0,193690	
27,929000	0,66	-0,192100	
27,940000	0,66	-0,193970	
27,951000	0,66	-0,187390	
27,962000	0,66	-0,180120	
27,973000	0,66	-0,170860	
27,984000	0,66	-0,171760	
27,995000	0,66	-0,166470	
28,006000	0,66	-0,165320	
28,017000	0,66	-0,171430	
28,028000	0,66	-0,181340	
28,039000	0,66	-0,183480	
28,050000	0,66	-0,169480	
28,061000	0,66	-0,163770	
28,072000	0,66	-0,159480	
28,083000	0,66	-0,169960	
28,094000	0,66	-0,175710	
28,105000	0,66	-0,189070	
28,116000	0,66	-0,188890	
28,127000	0,66	-0,182850	
28,138000	0,66	-0,184600	
28,149000	0,66	-0,178780	
28,160000	0,66	-0,171600	
28,171000	0,66	-0,175070	
28,182000	0,66	-0,183300	
28,193000	0,66	-0,182110	
28,204000	0,66	-0,176350	
28,215000	0,66	-0,168140	
28,226000	0,66	-0,167380	
28,237000	0,66	-0,179800	
28,248000	0,66	-0,183170	
28,259000	0,66	-0,176540	
28,270000	0,66	-0,175720	
28,281000	0,66	-0,181670	
28,292000	0,66	-0,178890	
28,303000	0,66	-0,176960	
28,314000	0,66	-0,170670	
28,325000	0,66	-0,160290	
28,336000	0,66	-0,158120	
28,347000	0,66	-0,175600	
28,358000	0,66	-0,190110	
28,369000	0,66	-0,199200	
28,380000	0,66	-0,201520	
28,391000	0,66	-0,203000	
28,402000	0,66	-0,184520	
28,413000	0,66	-0,177170	
28,424000	0,66	-0,158510	
28,435000	0,66	-0,162580	
28,446000	0,66	-0,171550	
28,457000	0,66	-0,177880	
28,468000	0,66	-0,174830	
28,479000	0,66	-0,166940	
28,490000	0,66	-0,156110	
28,501000	0,66	-0,153980	
28,512000	0,66	-0,154280	
28,523000	0,66	-0,146430	
28,534000	0,66	-0,144540	
28,545000	0,66	-0,142100	
28,556000	0,66	-0,146980	
28,567000	0,66	-0,163460	
28,578000	0,66	-0,163490	
28,589000	0,66	-0,162930	
28,600000	0,66	-0,173310	
28,611000	0,66	-0,183740	
28,622000	0,66	-0,175470	
28,633000	0,66	-0,165490	
28,644000	0,66	-0,158780	
28,655000	0,66	-0,162360	
28,666000	0,66	-0,165460	
28,677000	0,66	-0,170340	
28,688000	0,66	-0,173410	
28,699000	0,66	-0,165570	
28,710000	0,66	-0,153050	
28,721000	0,66	-0,149380	
28,732000	0,66	-0,147220	
28,743000	0,66	-0,149270	
28,754000	0,66	-0,156710	
28,765000	0,66	-0,151540	
28,776000	0,66	-0,143200	
28,787000	0,66	-0,139340	
28,798000	0,66	-0,143700	
28,809000	0,66	-0,146580	
28,820000	0,66	-0,152770	
28,831000	0,66	-0,158650	
28,842000	0,66	-0,160560	
28,853000	0,66	-0,155710	
28,864000	0,66	-0,154440	
28,875000	0,66	-0,161160	
28,886000	0,66	-0,169370	
28,897000	0,66	-0,173270	
28,908000	0,66	-0,174780	
28,919000	0,66	-0,174990	
28,930000	0,66	-0,176720	
28,941000	0,66	-0,176400	
28,952000	0,66	-0,165780	
28,963000	0,66	-0,165170	
28,974000	0,66	-0,173760	
28,985000	0,66	-0,186970	
28,996000	0,66	-0,189240	
29,007000	0,66	-0,185730	
29,018000	0,66	-0,186140	
29,029000	0,66	-0,187150	
29,040000	0,66	-0,182590	
29,051000	0,66	-0,180610	
29,062000	0,66	-0,182280	
29,073000	0,66	-0,180930	
29,084000	0,66	-0,190000	
29,095000	0,66	-0,189080	
29,106000	0,66	-0,183700	
29,117000	0,66	-0,192660	
29,128000	0,66	-0,202570	
29,139000	0,66	-0,206670	
29,150000	0,66	-0,198170	
29,161000	0,66	-0,186800	
29,172000	0,66	-0,196290	
29,183000	0,66	-0,207600	
29,194000	0,66	-0,208980	
29,205000	0,66	-0,207260	
29,216000	0,66	-0,199520	
29,227000	0,66	-0,204970	
29,238000	0,66	-0,202670	
29,249000	0,66	-0,184110	
29,260000	0,66	-0,179730	
29,271000	0,66	-0,175760	
29,282000	0,66	-0,174000	
29,293000	0,66	-0,185000	
29,304000	0,66	-0,180480	
29,315000	0,66	-0,188760	
29,326000	0,66	-0,188240	
29,337000	0,66	-0,186210	
29,348000	0,66	-0,188670	
29,359000	0,66	-0,186380	
29,370000	0,66	-0,194680	
29,381000	0,66	-0,201570	
29,392000	0,66	-0,201200	
29,403000	0,66	-0,206580	
29,414000	0,66	-0,208410	
29,425000	0,66	-0,206670	
29,436000	0,66	-0,202240	
29,447000	0,66	-0,194350	
29,458000	0,66	-0,191890	
29,469000	0,66	-0,185840	
29,480000	0,66	-0,184390	
29,491000	0,66	-0,183280	
29,502000	0,66	-0,192870	
29,513000	0,66	-0,207770	
29,524000	0,66	-0,199860	
29,535000	0,66	-0,206550	
29,546000	0,66	-0,224180	
29,557000	0,66	-0,222700	
29,568000	0,66	-0,213950	
29,579000	0,66	-0,212240	
29,590000	0,66	-0,214210	
29,601000	0,66	-0,208400	
29,612000	0,66	-0,203930	
29,623000	0,66	-0,206180	
29,634000	0,66	-0,206530	
29,645000	0,66	-0,197270	
29,656000	0,66	-0,197080	
29,667000	0,66	-0,213290	
29,678000	0,66	-0,213170	
29,689000	0,66	-0,209230	
29,700000	0,66	-0,205600	
29,711000	0,66	-0,206480	
29,722000	0,66	-0,195980	
29,733000	0,66	-0,200350	
29,744000	0,66	-0,203340	
29,755000	0,66	-0,196630	
29,766000	0,66	-0,191910	
29,777000	0,66	-0,197210	
29,788000	0,66	-0,206650	
29,799000	0,66	-0,215040	
29,810000	0,66	-0,206450	
29,821000	0,66	-0,201640	
29,832000	0,66	-0,203710	
29,843000	0,66	-0,206450	
29,854000	0,66	-0,214780	
29,865000	0,66	-0,216420	
29,876000	0,66	-0,214010	
29,887000	0,66	-0,210090	
29,898000	0,66	-0,199720	
29,909000	0,66	-0,189540	
29,920000	0,66	-0,197540	
29,931000	0,66	-0,199030	
29,942000	0,66	-0,199840	
29,953000	0,66	-0,207820	
29,964000	0,66	-0,209410	
29,975000	0,66	-0,213700	
29,986000	0,66	-0,206690	
29,997000	0,66	-0,198610	
30,008000	0,66	-0,185240	
30,019000	0,66	-0,187550	
30,030000	0,66	-0,189190	
30,041000	0,66	-0,192520	
30,052000	0,66	-0,188800	
30,063000	0,66	-0,185820	
30,074000	0,66	-0,189470	
30,085000	0,66	-0,198050	
30,096000	0,66	-0,206890	
30,107000	0,66	-0,214530	
30,118000	0,66	-0,207960	
30,129000	0,66	-0,196610	
30,140000	0,66	-0,198570	
30,151000	0,66	-0,206840	
30,162000	0,66	-0,208170	
30,173000	0,66	-0,211060	
30,184000	0,66	-0,213780	
30,195000	0,66	-0,205700	
30,206000	0,66	-0,197650	
30,217000	0,66	-0,196430	
30,228000	0,66	-0,200400	
30,239000	0,66	-0,213450	
30,250000	0,66	-0,220900	
30,261000	0,66	-0,211790	
30,272000	0,66	-0,211890	
30,283000	0,66	-0,216360	
30,294000	0,66	-0,208890	
30,305000	0,66	-0,202320	
30,316000	0,66	-0,201880	
30,327000	0,66	-0,200890	
30,338000	0,66	-0,202770	
30,349000	0,66	-0,211200	
30,360000	0,66	-0,214720	
30,371000	0,66	-0,213080	
30,382000	0,66	-0,205510	
30,393000	0,66	-0,208830	
30,404000	0,66	-0,219190	
30,415000	0,66	-0,220190	
30,426000	0,66	-0,213200	
30,437000	0,66	-0,204960	
30,448000	0,66	-0,191350	
30,459000	0,66	-0,181890	
30,470000	0,66	-0,177280	
30,481000	0,66	-0,180860	
30,492000	0,66	-0,188880	
30,503000	0,66	-0,189840	
30,514000	0,66	-0,195320	
30,525000	0,66	-0,199560	
30,536000	0,66	-0,196380	
30,547000	0,66	-0,193830	
30,558000	0,66	-0,201650	
30,569000	0,66	-0,207680	
30,580000	0,66	-0,212940	
30,591000	0,66	-0,211470	
30,602000	0,66	-0,215120	
30,613000	0,66	-0,211360	
30,624000	0,66	-0,214380	
30,635000	0,66	-0,215600	
30,646000	0,66	-0,209910	
30,657000	0,66	-0,205330	
30,668000	0,66	-0,201910	
30,679000	0,66	-0,194050	
30,690000	0,66	-0,191950	
30,701000	0,66	-0,206190	
30,712000	0,66	-0,204120	
30,723000	0,66	-0,200440	
30,734000	0,66	-0,200910	
30,745000	0,66	-0,197670	
30,756000	0,66	-0,199220	
30,767000	0,66	-0,204450	
30,778000	0,66	-0,202960	
30,789000	0,66	-0,195230	
30,800000	0,66	-0,202560	
30,811000	0,66	-0,209420	
30,822000	0,66	-0,216930	
30,833000	0,66	-0,217510	
30,844000	0,66	-0,211780	
30,855000	0,66	-0,218010	
30,866000	0,66	-0,223050	
30,877000	0,66	-0,218490	
30,888000	0,66	-0,209940	
30,899000	0,66	-0,204200	
30,910000	0,66	-0,206960	
30,921000	0,66	-0,213210	
30,932000	0,66	-0,211000	
30,943000	0,66	-0,211770	
30,954000	0,66	-0,218610	
30,965000	0,66	-0,213230	
30,976000	0,66	-0,207930	
30,987000	0,66	-0,222450	
30,998000	0,66	-0,234230	
31,009000	0,66	-0,220280	
31,020000	0,66	-0,199200	
31,031000	0,66	-0,192830	
31,042000	0,66	-0,195630	
31,053000	0,66	-0,198870	
31,064000	0,66	-0,204700	
31,075000	0,66	-0,210500	
31,086000	0,66	-0,212320	
31,097000	0,66	-0,214610	
31,108000	0,66	-0,207400	
31,119000	0,66	-0,188110	
31,130000	0,66	-0,185090	
31,141000	0,66	-0,191450	
31,152000	0,66	-0,193230	
31,163000	0,66	-0,201260	
31,174000	0,66	-0,211470	
31,185000	0,66	-0,209450	
31,196000	0,66	-0,209140	
31,207000	0,66	-0,208400	
31,218000	0,66	-0,216680	
31,229000	0,66	-0,218830	
31,240000	0,66	-0,221630	
31,251000	0,66	-0,217740	
31,262000	0,66	-0,211010	
31,273000	0,66	-0,211550	
31,284000	0,66	-0,201700	
31,295000	0,66	-0,191880	
31,306000	0,66	-0,182510	
31,317000	0,66	-0,184400	
31,328000	0,66	-0,202310	
31,339000	0,66	-0,209900	
31,350000	0,66	-0,214330	
31,361000	0,66	-0,215230	
31,372000	0,66	-0,222750	
31,383000	0,66	-0,232510	
31,394000	0,66	-0,225000	
31,405000	0,66	-0,227640	
31,416000	0,66	-0,226090	
31,427000	0,66	-0,232140	
31,438000	0,66	-0,228790	
31,449000	0,66	-0,215730	
31,460000	0,66	-0,208520	
31,471000	0,66	-0,214700	
31,482000	0,66	-0,212200	
31,493000	0,66	-0,202330	
31,504000	0,66	-0,204210	
31,515000	0,66	-0,221870	
31,526000	0,66	-0,234270	
31,537000	0,66	-0,232140	
31,548000	0,66	-0,222360	
31,559000	0,66	-0,211240	
31,570000	0,66	-0,213230	
31,581000	0,66	-0,222740	
31,592000	0,66	-0,213270	
31,603000	0,66	-0,203900	
31,614000	0,66	-0,201940	
31,625000	0,66	-0,206990	
31,636000	0,66	-0,217810	
31,647000	0,66	-0,227080	
31,658000	0,66	-0,232010	
31,669000	0,66	-0,226380	
31,680000	0,66	-0,223690	
31,691000	0,66	-0,229930	
31,702000	0,66	-0,228790	
31,713000	0,66	-0,229080	
31,724000	0,66	-0,235610	
31,735000	0,66	-0,234040	
31,746000	0,66	-0,226680	
31,757000	0,66	-0,223930	
31,768000	0,66	-0,227440	
31,779000	0,66	-0,223860	
31,790000	0,66	-0,225080	
31,801000	0,66	-0,227500	
31,812000	0,66	-0,206240	
31,823000	0,66	-0,200150	
31,834000	0,66	-0,206540	
31,845000	0,66	-0,209450	
31,856000	0,66	-0,214410	
31,867000	0,66	-0,220010	
31,878000	0,66	-0,233940	
31,889000	0,66	-0,238950	
31,900000	0,66	-0,238680	
31,911000	0,66	-0,235900	
31,922000	0,66	-0,235960	
31,933000	0,66	-0,230430	
31,944000	0,66	-0,228870	
31,955000	0,66	-0,227100	
31,966000	0,66	-0,231020	
31,977000	0,66	-0,223260	
31,988000	0,66	-0,216470	
31,999000	0,66	-0,220500	
32,010000	0,66	-0,219300	
32,021000	0,66	-0,225160	
32,032000	0,66	-0,224890	
32,043000	0,66	-0,222460	
32,054000	0,66	-0,217990	
32,065000	0,66	-0,220290	
32,076000	0,66	-0,220160	
32,087000	0,66	-0,211530	
32,098000	0,66	-0,220690	
32,109000	0,66	-0,230780	
32,120000	0,66	-0,233180	
32,131000	0,66	-0,235890	
32,142000	0,66	-0,234010	
32,153000	0,66	-0,227040	
32,164000	0,66	-0,240900	
32,175000	0,66	-0,242370	
32,186000	0,66	-0,234280	
32,197000	0,66	-0,234030	
32,208000	0,66	-0,231720	
32,219000	0,66	-0,228980	
32,230000	0,66	-0,229400	
32,241000	0,66	-0,230230	
32,252000	0,66	-0,229770	
32,263000	0,66	-0,226510	
32,274000	0,66	-0,225840	
32,285000	0,66	-0,223590	
32,296000	0,66	-0,227390	
32,307000	0,66	-0,234900	
32,318000	0,66	-0,227850	
32,329000	0,66	-0,217190	
32,340000	0,66	-0,222230	
32,351000	0,66	-0,227520	
32,362000	0,66	-0,232340	
32,373000	0,66	-0,233490	
32,384000	0,66	-0,220880	
32,395000	0,66	-0,209080	
32,406000	0,66	-0,209960	
32,417000	0,66	-0,219660	
32,428000	0,66	-0,228120	
32,439000	0,66	-0,225660	
32,450000	0,66	-0,222050	
32,461000	0,66	-0,232980	
32,472000	0,66	-0,242910	
32,483000	0,66	-0,249900	
32,494000	0,66	-0,253510	
32,505000	0,66	-0,246910	
32,516000	0,66	-0,240090	
32,527000	0,66	-0,227200	
32,538000	0,66	-0,236950	
32,549000	0,66	-0,238570	
32,560000	0,66	-0,229140	
32,571000	0,66	-0,221790	
32,582000	0,66	-0,215540	
32,593000	0,66	-0,224310	
32,604000	0,66	-0,216910	
32,615000	0,66	-0,216490	
32,626000	0,66	-0,214280	
32,637000	0,66	-0,222870	
32,648000	0,66	-0,227870	
32,659000	0,66	-0,240680	
32,670000	0,66	-0,246720	
32,681000	0,66	-0,252290	
32,692000	0,66	-0,247230	
32,703000	0,66	-0,246260	
32,714000	0,66	-0,242310	
32,725000	0,66	-0,246060	
32,736000	0,66	-0,239500	
32,747000	0,66	-0,236310	
32,758000	0,66	-0,232660	
32,769000	0,66	-0,233380	
32,780000	0,66	-0,237540	
32,791000	0,66	-0,243230	
32,802000	0,66	-0,240380	
32,813000	0,66	-0,223620	
32,824000	0,66	-0,214890	
32,835000	0,66	-0,211830	
32,846000	0,66	-0,203650	
32,857000	0,66	-0,216620	
32,868000	0,66	-0,224400	
32,879000	0,66	-0,232820	
32,890000	0,66	-0,243000	
32,901000	0,66	-0,244960	
32,912000	0,66	-0,240980	
32,923000	0,66	-0,232100	
32,934000	0,66	-0,231410	
32,945000	0,66	-0,234120	
32,956000	0,66	-0,237480	
32,967000	0,66	-0,234060	
32,978000	0,66	-0,219130	
32,989000	0,66	-0,224470	
33,000000	0,66	-0,224820	
33,011000	0,66	-0,222360	
33,022000	0,66	-0,219980	
33,033000	0,66	-0,216430	
33,044000	0,66	-0,217280	
33,055000	0,66	-0,222330	
33,066000	0,66	-0,231500	
33,077000	0,66	-0,237730	
33,088000	0,66	-0,228530	
33,099000	0,66	-0,217830	
33,110000	0,66	-0,220340	
33,121000	0,66	-0,221780	
33,132000	0,66	-0,224800	
33,143000	0,66	-0,233570	
33,154000	0,66	-0,244230	
33,165000	0,66	-0,243430	
33,176000	0,66	-0,233940	
33,187000	0,66	-0,233940	
33,198000	0,66	-0,238560	
33,209000	0,66	-0,248520	
33,220000	0,66	-0,246650	
33,231000	0,66	-0,235640	
33,242000	0,66	-0,232160	
33,253000	0,66	-0,237180	
33,264000	0,66	-0,236270	
33,275000	0,66	-0,248610	
33,286000	0,66	-0,241270	
33,297000	0,66	-0,230530	
33,308000	0,66	-0,213640	
33,319000	0,66	-0,213350	
33,330000	0,66	-0,227140	
33,341000	0,66	-0,242850	
33,352000	0,66	-0,240900	
33,363000	0,66	-0,240600	
33,374000	0,66	-0,238000	
33,385000	0,66	-0,245050	
33,396000	0,66	-0,237970	
33,407000	0,66	-0,236140	
33,418000	0,66	-0,234930	
33,429000	0,66	-0,228870	
33,440000	0,66	-0,226410	
33,451000	0,66	-0,214560	
33,462000	0,66	-0,220770	
33,473000	0,66	-0,239760	
33,484000	0,66	-0,242340	
33,495000	0,66	-0,233790	
33,506000	0,66	-0,230840	
33,517000	0,66	-0,232520	
33,528000	0,66	-0,233410	
33,539000	0,66	-0,249410	
33,550000	0,66	-0,244390	
33,561000	0,66	-0,220060	
33,572000	0,66	-0,225520	
33,583000	0,66	-0,226220	
33,594000	0,66	-0,239260	
33,605000	0,66	-0,250500	
33,616000	0,66	-0,250920	
33,627000	0,66	-0,262130	
33,638000	0,66	-0,266120	
33,649000	0,66	-0,257560	
33,660000	0,66	-0,262990	
33,671000	0,66	-0,263240	
33,682000	0,66	-0,259960	
33,693000	0,66	-0,254260	
33,704000	0,66	-0,241910	
33,715000	0,66	-0,240640	
33,726000	0,66	-0,246840	
33,737000	0,66	-0,240280	
33,748000	0,66	-0,231350	
33,759000	0,66	-0,240560	
33,770000	0,66	-0,243240	
33,781000	0,66	-0,239720	
33,792000	0,66	-0,246800	
33,803000	0,66	-0,242620	
33,814000	0,66	-0,225450	
33,825000	0,66	-0,222590	
33,836000	0,66	-0,242440	
33,847000	0,66	-0,244930	
33,858000	0,66	-0,234130	
33,869000	0,66	-0,236260	
33,880000	0,66	-0,233170	
33,891000	0,66	-0,233470	
33,902000	0,66	-0,240680	
33,913000	0,66	-0,244400	
33,924000	0,66	-0,240700	
33,935000	0,66	-0,240930	
33,946000	0,66	-0,254250	
33,957000	0,66	-0,255800	
33,968000	0,66	-0,252210	
33,979000	0,66	-0,245010	
33,990000	0,66	-0,231010	
34,001000	0,66	-0,244020	
34,012000	0,66	-0,247040	
34,023000	0,66	-0,246010	
34,034000	0,66	-0,238210	
34,045000	0,66	-0,230240	
34,056000	0,66	-0,221240	
34,067000	0,66	-0,221280	
34,078000	0,66	-0,226830	
34,089000	0,66	-0,237150	
34,100000	0,66	-0,237720	
34,111000	0,66	-0,243680	
34,122000	0,66	-0,250590	
34,133000	0,66	-0,239450	
34,144000	0,66	-0,242490	
34,155000	0,66	-0,254960	
34,166000	0,66	-0,276350	
34,177000	0,66	-0,276910	
34,188000	0,66	-0,253320	
34,199000	0,66	-0,239970	
34,210000	0,66	-0,238750	
34,221000	0,66	-0,241210	
34,232000	0,66	-0,240210	
34,243000	0,66	-0,243210	
34,254000	0,66	-0,239140	
34,265000	0,66	-0,234520	
34,276000	0,66	-0,237290	
34,287000	0,66	-0,229400	
34,298000	0,66	-0,227250	
34,309000	0,66	-0,237930	
34,320000	0,66	-0,237550	
34,331000	0,66	-0,239170	
34,342000	0,66	-0,249050	
34,353000	0,66	-0,251030	
34,364000	0,66	-0,232610	
34,375000	0,66	-0,231720	
34,386000	0,66	-0,245170	
34,397000	0,66	-0,254890	
34,408000	0,66	-0,266640	
34,419000	0,66	-0,266270	
34,430000	0,66	-0,263750	
34,441000	0,66	-0,259980	
34,452000	0,66	-0,249420	
34,463000	0,66	-0,238590	
34,474000	0,66	-0,227320	
34,485000	0,66	-0,227300	
34,496000	0,66	-0,234810	
34,507000	0,66	-0,241470	
34,518000	0,66	-0,247330	
34,529000	0,66	-0,252380	
34,540000	0,66	-0,265080	
34,551000	0,66	-0,267430	
34,562000	0,66	-0,252520	
34,573000	0,66	-0,236840	
34,584000	0,66	-0,234230	
34,595000	0,66	-0,235620	
34,606000	0,66	-0,249280	
34,617000	0,66	-0,256400	
34,628000	0,66	-0,242950	
34,639000	0,66	-0,233060	
34,650000	0,66	-0,240330	
34,661000	0,66	-0,243790	
34,672000	0,66	-0,240860	
34,683000	0,66	-0,231290	
34,694000	0,66	-0,224170	
34,705000	0,66	-0,224450	
34,716000	0,66	-0,233930	
34,727000	0,66	-0,243850	
34,738000	0,66	-0,241720	
34,749000	0,66	-0,237450	
34,760000	0,66	-0,250630	
34,771000	0,66	-0,262220	
34,782000	0,66	-0,260180	
34,793000	0,66	-0,247420	
34,804000	0,66	-0,245970	
34,815000	0,66	-0,235140	
34,826000	0,66	-0,218250	
34,837000	0,66	-0,217800	
34,848000	0,66	-0,213760	
34,859000	0,66	-0,228600	
34,870000	0,66	-0,236180	
34,881000	0,66	-0,244770	
34,892000	0,66	-0,245590	
34,903000	0,66	-0,252460	
34,914000	0,66	-0,249040	
34,925000	0,66	-0,236700	
34,936000	0,66	-0,238160	
34,947000	0,66	-0,243900	
34,958000	0,66	-0,237370	
34,969000	0,66	-0,249750	
34,980000	0,66	-0,250360	
34,991000	0,66	-0,249460	
35,002000	0,66	-0,250540	
35,013000	0,66	-0,258030	
35,024000	0,66	-0,258970	
35,035000	0,66	-0,255230	
35,046000	0,66	-0,261840	
35,057000	0,66	-0,255600	
35,068000	0,66	-0,247600	
35,079000	0,66	-0,248820	
35,090000	0,66	-0,246450	
35,101000	0,66	-0,246360	
35,112000	0,66	-0,238100	
35,123000	0,66	-0,239500	
35,134000	0,66	-0,251710	
35,145000	0,66	-0,257740	
35,156000	0,66	-0,260750	
35,167000	0,66	-0,258960	
35,178000	0,66	-0,257880	
35,189000	0,66	-0,257400	
35,200000	0,66	-0,252740	
35,211000	0,66	-0,250150	
35,222000	0,66	-0,253450	
35,233000	0,66	-0,264250	
35,244000	0,66	-0,267800	
35,255000	0,66	-0,262970	
35,266000	0,66	-0,269320	
35,277000	0,66	-0,266680	
35,288000	0,66	-0,259250	
35,299000	0,66	-0,256130	
35,310000	0,66	-0,258410	
35,321000	0,66	-0,254470	
35,332000	0,66	-0,250820	
35,343000	0,66	-0,252150	
35,354000	0,66	-0,268370	
35,365000	0,66	-0,267220	
35,376000	0,66	-0,258460	
35,387000	0,66	-0,255210	
35,398000	0,66	-0,243320	
35,409000	0,66	-0,236830	
35,420000	0,66	-0,243790	
35,431000	0,66	-0,247610	
35,442000	0,66	-0,245930	
35,453000	0,66	-0,251870	
35,464000	0,66	-0,256400	
35,475000	0,66	-0,248800	
35,486000	0,66	-0,244060	
35,497000	0,66	-0,247380	
35,508000	0,66	-0,256580	
35,519000	0,66	-0,271380	
35,530000	0,66	-0,277040	
35,541000	0,66	-0,270760	
35,552000	0,66	-0,268670	
35,563000	0,66	-0,263860	
35,574000	0,66	-0,251580	
35,585000	0,66	-0,256540	
35,596000	0,66	-0,254600	
35,607000	0,66	-0,255780	
35,618000	0,66	-0,267730	
35,629000	0,66	-0,274500	
35,640000	0,66	-0,264080	
35,651000	0,66	-0,253540	
35,662000	0,66	-0,248080	
35,673000	0,66	-0,243150	
35,684000	0,66	-0,246590	
35,695000	0,66	-0,251010	
35,706000	0,66	-0,252940	
35,717000	0,66	-0,254420	
35,728000	0,66	-0,254630	
35,739000	0,66	-0,245690	
35,750000	0,66	-0,240210	
35,761000	0,66	-0,229860	
35,772000	0,66	-0,239330	
35,783000	0,66	-0,254740	
35,794000	0,66	-0,260790	
35,805000	0,66	-0,254150	
35,816000	0,66	-0,251640	
35,827000	0,66	-0,250620	
35,838000	0,66	-0,247540	
35,849000	0,66	-0,249040	
35,860000	0,66	-0,254420	
35,871000	0,66	-0,264040	
35,882000	0,66	-0,275720	
35,893000	0,66	-0,278600	
35,904000	0,66	-0,271690	
35,915000	0,66	-0,269440	
35,926000	0,66	-0,267870	
35,937000	0,66	-0,263500	
35,948000	0,66	-0,255660	
35,959000	0,66	-0,247060	
35,970000	0,66	-0,236860	
35,981000	0,66	-0,234920	
35,992000	0,66	-0,235950	
36,003000	0,66	-0,244950	
36,014000	0,66	-0,239920	
36,025000	0,66	-0,249730	
36,036000	0,66	-0,258270	
36,047000	0,66	-0,257990	
36,058000	0,66	-0,249190	
36,069000	0,66	-0,240900	
36,080000	0,66	-0,233580	
36,091000	0,66	-0,235360	
36,102000	0,66	-0,241040	
36,113000	0,66	-0,260370	
36,124000	0,66	-0,261620	
36,135000	0,66	-0,269050	
36,146000	0,66	-0,270920	
36,157000	0,66	-0,264880	
36,168000	0,66	-0,270560	
36,179000	0,66	-0,263840	
36,190000	0,66	-0,263610	
36,201000	0,66	-0,264670	
36,212000	0,66	-0,254140	
36,223000	0,66	-0,251030	
36,234000	0,66	-0,253030	
36,245000	0,66	-0,266150	
36,256000	0,66	-0,260860	
36,267000	0,66	-0,265460	
36,278000	0,66	-0,253530	
36,289000	0,66	-0,237000	
36,300000	0,66	-0,236200	
36,311000	0,66	-0,240840	
36,322000	0,66	-0,235360	
36,333000	0,66	-0,242370	
36,344000	0,66	-0,256770	
36,355000	0,66	-0,243800	
36,366000	0,66	-0,232730	
36,377000	0,66	-0,235690	
36,388000	0,66	-0,237480	
36,399000	0,66	-0,251990	
36,410000	0,66	-0,261140	
36,421000	0,66	-0,259360	
36,432000	0,66	-0,260380	
36,443000	0,66	-0,261830	
36,454000	0,66	-0,256110	
36,465000	0,66	-0,265790	
36,476000	0,66	-0,273360	
36,487000	0,66	-0,270770	
36,498000	0,66	-0,259550	
36,509000	0,66	-0,249750	
36,520000	0,66	-0,260870	
36,531000	0,66	-0,266380	
36,542000	0,66	-0,255780	
36,553000	0,66	-0,256640	
36,564000	0,66	-0,263910	
36,575000	0,66	-0,267950	
36,586000	0,66	-0,276650	
36,597000	0,66	-0,282660	
36,608000	0,66	-0,280540	
36,619000	0,66	-0,277790	
36,630000	0,66	-0,273650	
36,641000	0,66	-0,268890	
36,652000	0,66	-0,274400	
36,663000	0,66	-0,277430	
36,674000	0,66	-0,274070	
36,685000	0,66	-0,278470	
36,696000	0,66	-0,279520	
36,707000	0,66	-0,279820	
36,718000	0,66	-0,287740	
36,729000	0,66	-0,282930	
36,740000	0,66	-0,276640	
36,751000	0,66	-0,281770	
36,762000	0,66	-0,288630	
36,773000	0,66	-0,290920	
36,784000	0,66	-0,280300	
36,795000	0,66	-0,277480	
36,806000	0,66	-0,282820	
36,817000	0,66	-0,290310	
36,828000	0,66	-0,298050	
36,839000	0,66	-0,299010	
36,850000	0,66	-0,296820	
36,861000	0,66	-0,300310	
36,872000	0,66	-0,301030	
36,883000	0,66	-0,308070	
36,894000	0,66	-0,311120	
36,905000	0,66	-0,304300	
36,916000	0,66	-0,307150	
36,927000	0,66	-0,295780	
36,938000	0,66	-0,287550	
36,949000	0,66	-0,289570	
36,960000	0,66	-0,300710	
36,971000	0,66	-0,311070	
36,982000	0,66	-0,310160	
36,993000	0,66	-0,305690	
37,004000	0,66	-0,314530	
37,015000	0,66	-0,322440	
37,026000	0,66	-0,336360	
37,037000	0,66	-0,335510	
37,048000	0,66	-0,332500	
37,059000	0,66	-0,326740	
37,070000	0,66	-0,317270	
37,081000	0,66	-0,304390	
37,092000	0,66	-0,306450	
37,103000	0,66	-0,318970	
37,114000	0,66	-0,329820	
37,125000	0,66	-0,337490	
37,136000	0,66	-0,324870	
37,147000	0,66	-0,311020	
37,158000	0,66	-0,322280	
37,169000	0,66	-0,327800	
37,180000	0,66	-0,330360	
37,191000	0,66	-0,338270	
37,202000	0,66	-0,333730	
37,213000	0,66	-0,325220	
37,224000	0,66	-0,338670	
37,235000	0,66	-0,347780	
37,246000	0,66	-0,341740	
37,257000	0,66	-0,340710	
37,268000	0,66	-0,344150	
37,279000	0,66	-0,344140	
37,290000	0,66	-0,339570	
37,301000	0,66	-0,345610	
37,312000	0,66	-0,356010	
37,323000	0,66	-0,357930	
37,334000	0,66	-0,355870	
37,345000	0,66	-0,355850	
37,356000	0,66	-0,355850	
37,367000	0,66	-0,349760	
37,378000	0,66	-0,354060	
37,389000	0,66	-0,355070	
37,400000	0,66	-0,353510	
37,411000	0,66	-0,352580	
37,422000	0,66	-0,358570	
37,433000	0,66	-0,359890	
37,444000	0,66	-0,365080	
37,455000	0,66	-0,379340	
37,466000	0,66	-0,369270	
37,477000	0,66	-0,367480	
37,488000	0,66	-0,374210	
37,499000	0,66	-0,374660	
37,510000	0,66	-0,372920	
37,521000	0,66	-0,371560	
37,532000	0,66	-0,360570	
37,543000	0,66	-0,357280	
37,554000	0,66	-0,360180	
37,565000	0,66	-0,367050	
37,576000	0,66	-0,363530	
37,587000	0,66	-0,355320	
37,598000	0,66	-0,360080	
37,609000	0,66	-0,356580	
37,620000	0,66	-0,352260	
37,631000	0,66	-0,351830	
37,642000	0,66	-0,350630	
37,653000	0,66	-0,352030	
37,664000	0,66	-0,353200	
37,675000	0,66	-0,364750	
37,686000	0,66	-0,374420	
37,697000	0,66	-0,386930	
37,708000	0,66	-0,385680	
37,719000	0,66	-0,385270	
37,730000	0,66	-0,394470	
37,741000	0,66	-0,398690	
37,752000	0,66	-0,381700	
37,763000	0,66	-0,371940	
37,774000	0,66	-0,370620	
37,785000	0,66	-0,380580	
37,796000	0,66	-0,383680	
37,807000	0,66	-0,389440	
37,818000	0,66	-0,397350	
37,829000	0,66	-0,401910	
37,840000	0,66	-0,396820	
37,851000	0,66	-0,385770	
37,862000	0,66	-0,386100	
37,873000	0,66	-0,383400	
37,884000	0,66	-0,383290	
37,895000	0,66	-0,378900	
37,906000	0,66	-0,380150	
37,917000	0,66	-0,396010	
37,928000	0,66	-0,397480	
37,939000	0,66	-0,391040	
37,950000	0,66	-0,388780	
37,961000	0,66	-0,384570	
37,972000	0,66	-0,380050	
37,983000	0,66	-0,383430	
37,994000	0,66	-0,390780	
38,005000	0,66	-0,390500	
38,016000	0,66	-0,393760	
38,027000	0,66	-0,390280	
38,038000	0,66	-0,389240	
38,049000	0,66	-0,392180	
38,060000	0,66	-0,389280	
38,071000	0,66	-0,385250	
38,082000	0,66	-0,392020	
38,093000	0,66	-0,394700	
38,104000	0,66	-0,393270	
38,115000	0,66	-0,393110	
38,126000	0,66	-0,387300	
38,137000	0,66	-0,399300	
38,148000	0,66	-0,407750	
38,159000	0,66	-0,400510	
38,170000	0,66	-0,403250	
38,181000	0,66	-0,404270	
38,192000	0,66	-0,405540	
38,203000	0,66	-0,398270	
38,214000	0,66	-0,386480	
38,225000	0,66	-0,388190	
38,236000	0,66	-0,390990	
38,247000	0,66	-0,405290	
38,258000	0,66	-0,404970	
38,269000	0,66	-0,393280	
38,280000	0,66	-0,384970	
38,291000	0,66	-0,397250	
38,302000	0,66	-0,393000	
38,313000	0,66	-0,390880	
38,324000	0,66	-0,395200	
38,335000	0,66	-0,394160	
38,346000	0,66	-0,401780	
38,357000	0,66	-0,396660	
38,368000	0,66	-0,398800	
38,379000	0,66	-0,408230	
38,390000	0,66	-0,403290	
38,401000	0,66	-0,410520	
38,412000	0,66	-0,411500	
38,423000	0,66	-0,416380	
38,434000	0,66	-0,416550	
38,445000	0,66	-0,411670	
38,456000	0,66	-0,405970	
38,467000	0,66	-0,405790	
38,478000	0,66	-0,405470	
38,489000	0,66	-0,412170	
38,500000	0,66	-0,412750	
38,511000	0,66	-0,413830	
38,522000	0,66	-0,419100	
38,533000	0,66	-0,417900	
38,544000	0,66	-0,423330	
38,555000	0,66	-0,427960	
38,566000	0,66	-0,431950	
38,577000	0,66	-0,424170	
38,588000	0,66	-0,417060	
38,599000	0,66	-0,410820	
38,610000	0,66	-0,405530	
38,621000	0,66	-0,408460	
38,632000	0,66	-0,404620	
38,643000	0,66	-0,398380	
38,654000	0,66	-0,400660	
38,665000	0,66	-0,400260	
38,676000	0,66	-0,400050	
38,687000	0,66	-0,399770	
38,698000	0,66	-0,399880	
38,709000	0,66	-0,407310	
38,720000	0,66	-0,403270	
38,731000	0,66	-0,398080	
38,742000	0,66	-0,402420	
38,753000	0,66	-0,411050	
38,764000	0,66	-0,411760	
38,775000	0,66	-0,407410	
38,786000	0,66	-0,415860	
38,797000	0,66	-0,414210	
38,808000	0,66	-0,420710	
38,819000	0,66	-0,418620	
38,830000	0,66	-0,414630	
38,841000	0,66	-0,414410	
38,852000	0,66	-0,412830	
38,863000	0,66	-0,407850	
38,874000	0,66	-0,404960	
38,885000	0,66	-0,408020	
38,896000	0,66	-0,421890	
38,907000	0,66	-0,422590	
38,918000	0,66	-0,422960	
38,929000	0,66	-0,415840	
38,940000	0,66	-0,416580	
38,951000	0,66	-0,420870	
38,962000	0,66	-0,428490	
38,973000	0,66	-0,413360	
38,984000	0,66	-0,392740	
38,995000	0,66	-0,385130	
39,006000	0,66	-0,392130	
39,017000	0,66	-0,390420	
39,028000	0,66	-0,393120	
39,039000	0,66	-0,402860	
39,050000	0,66	-0,410390	
39,061000	0,66	-0,426350	
39,072000	0,66	-0,429400	
39,083000	0,66	-0,418730	
39,094000	0,66	-0,411280	
39,105000	0,66	-0,407510	
39,116000	0,66	-0,417500	
39,127000	0,66	-0,427370	
39,138000	0,66	-0,430000	
39,149000	0,66	-0,429510	
39,160000	0,66	-0,434040	
39,171000	0,66	-0,427740	
39,182000	0,66	-0,419400	
39,193000	0,66	-0,415820	
39,204000	0,66	-0,414070	
39,215000	0,66	-0,405890	
39,226000	0,66	-0,402580	
39,237000	0,66	-0,405970	
39,248000	0,66	-0,402750	
39,259000	0,66	-0,399950	
39,270000	0,66	-0,408770	
39,281000	0,66	-0,419070	
39,292000	0,66	-0,424270	
39,303000	0,66	-0,420070	
39,314000	0,66	-0,408730	
39,325000	0,66	-0,397590	
39,336000	0,66	-0,387170	
39,347000	0,66	-0,388370	
39,358000	0,66	-0,396160	
39,369000	0,66	-0,397970	
39,380000	0,66	-0,393050	
39,391000	0,66	-0,394060	
39,402000	0,66	-0,411390	
39,413000	0,66	-0,409800	
39,424000	0,66	-0,403900	
39,435000	0,66	-0,403290	
39,446000	0,66	-0,393500	
39,457000	0,66	-0,395460	
39,468000	0,66	-0,391490	
39,479000	0,66	-0,393010	
39,490000	0,66	-0,387020	
39,501000	0,66	-0,389570	
39,512000	0,66	-0,410620	
39,523000	0,66	-0,407690	
39,534000	0,66	-0,408210	
39,545000	0,66	-0,415630	
39,556000	0,66	-0,420200	
39,567000	0,66	-0,419220	
39,578000	0,66	-0,417550	
39,589000	0,66	-0,414810	
39,600000	0,66	-0,403970	
39,611000	0,66	-0,415900	
39,622000	0,66	-0,425090	
39,633000	0,66	-0,428190	
39,644000	0,66	-0,420470	
39,655000	0,66	-0,420660	
39,666000	0,66	-0,417820	
39,677000	0,66	-0,415610	
39,688000	0,66	-0,413680	
39,699000	0,66	-0,405940	
39,710000	0,66	-0,413840	
39,721000	0,66	-0,410710	
39,732000	0,66	-0,409860	
39,743000	0,66	-0,415340	
39,754000	0,66	-0,417350	
39,765000	0,66	-0,413010	
39,776000	0,66	-0,419250	
39,787000	0,66	-0,415600	
39,798000	0,66	-0,417170	
39,809000	0,66	-0,416320	
39,820000	0,66	-0,422230	
39,831000	0,66	-0,417940	
39,842000	0,66	-0,421610	
39,853000	0,66	-0,435220	
39,864000	0,66	-0,432190	
39,875000	0,66	-0,417240	
39,886000	0,66	-0,415540	
39,897000	0,66	-0,421770	
39,908000	0,66	-0,416880	
39,919000	0,66	-0,412220	
39,930000	0,66	-0,402550	
39,941000	0,66	-0,392110	
39,952000	0,66	-0,390190	
39,963000	0,66	-0,398070	
39,974000	0,66	-0,403160	
39,985000	0,66	-0,412700	
39,996000	0,66	-0,423450	
40,007000	0,66	-0,422700	
