Filepath	C:\Chromel\data\Analytik\Walther group\Guido\mechanosense\GCR260.SEQ\UV_VIS_2.CHL\30161.acd
Channel	UV_VIS_2

Sample Information:
Datasource	PC-8NN4M2J_local
Sequence	Analytik\Walther group\Guido\mechanosense\GCR260.SEQ
Sample	200717-11
Sample Number	314
Sample Position	RC1
Sample ID	30161
Comment	260-P5-2
QNT method	default
PGM file	single-component-3 40min 60C 0,4mLmin
Type	unknown
Status	finished
Date	17.07.2020
Time	17:48:49
Injection Volume (µl)	100,00
Dilution Factor	1,000000
Amount	1,000000
Weight	1,000000

Raw Data Header Information:
Time Min. (min)	0,000
Time Max. (min)	40,007
Raw-Time Min. (min)	0,000
Raw-Time Max. (min)	40,007
Data Points	3638
Detector	VWD3000.dll
Preferred Read Mode	Unknown
Write Mode	Unknown
Data System	Chromeleon
Version High	06
Version Low	80
Build No.	3160
File Format Version	11
Generation Type	8
File ID	239054205
File Status	16
GUID	b144bda8-c844-11ea-b409-00184d71f7da
Signal Factor	0,000010
Signal Dimension	mAU
Signal Unit	Absorbance
Signal Min.	-1,50694
Signal Max.	93,924460
Channel Name	UV_VIS_2
Driver Name	VWD-3x00 Detector
Min. Step	66
Max. Step	66
Average Step	66

Signal Parameter Information:
Signal Info	WVL:556 nm
Wavelength	556 nm
	 




















Raw Data:
Time(min)	Step(sec)	Value(mAU)
0,000000	0,00	-0,096630	
0,011000	0,66	-0,096690	
0,022000	0,66	-0,096410	
0,033000	0,66	-0,089360	
0,044000	0,66	-0,080400	
0,055000	0,66	-0,075900	
0,066000	0,66	-0,078500	
0,077000	0,66	-0,057360	
0,088000	0,66	-0,060250	
0,099000	0,66	-0,052530	
0,110000	0,66	-0,058610	
0,121000	0,66	-0,068310	
0,132000	0,66	-0,077960	
0,143000	0,66	-0,072070	
0,154000	0,66	-0,070380	
0,165000	0,66	-0,062770	
0,176000	0,66	-0,050620	
0,187000	0,66	-0,043360	
0,198000	0,66	-0,061300	
0,209000	0,66	-0,083370	
0,220000	0,66	-0,085360	
0,231000	0,66	-0,073500	
0,242000	0,66	-0,078370	
0,253000	0,66	-0,076550	
0,264000	0,66	-0,084790	
0,275000	0,66	-0,093060	
0,286000	0,66	-0,086860	
0,297000	0,66	-0,083330	
0,308000	0,66	-0,086510	
0,319000	0,66	-0,067800	
0,330000	0,66	-0,044050	
0,341000	0,66	-0,026140	
0,352000	0,66	-0,024620	
0,363000	0,66	-0,035040	
0,374000	0,66	-0,045450	
0,385000	0,66	-0,049830	
0,396000	0,66	-0,049300	
0,407000	0,66	-0,064100	
0,418000	0,66	-0,073360	
0,429000	0,66	-0,086880	
0,440000	0,66	-0,096030	
0,451000	0,66	-0,078560	
0,462000	0,66	-0,068410	
0,473000	0,66	-0,081660	
0,484000	0,66	-0,083370	
0,495000	0,66	-0,089960	
0,506000	0,66	-0,077550	
0,517000	0,66	-0,070230	
0,528000	0,66	-0,081310	
0,539000	0,66	-0,082380	
0,550000	0,66	-0,072700	
0,561000	0,66	-0,060490	
0,572000	0,66	-0,062210	
0,583000	0,66	-0,071520	
0,594000	0,66	-0,081790	
0,605000	0,66	-0,071540	
0,616000	0,66	-0,070250	
0,627000	0,66	-0,056730	
0,638000	0,66	-0,060510	
0,649000	0,66	-0,065080	
0,660000	0,66	-0,054600	
0,671000	0,66	-0,060790	
0,682000	0,66	-0,073460	
0,693000	0,66	-0,076380	
0,704000	0,66	-0,078580	
0,715000	0,66	-0,083880	
0,726000	0,66	-0,089920	
0,737000	0,66	-0,106750	
0,748000	0,66	-0,110420	
0,759000	0,66	-0,096830	
0,770000	0,66	-0,101550	
0,781000	0,66	-0,105070	
0,792000	0,66	-0,096460	
0,803000	0,66	-0,114820	
0,814000	0,66	-0,114940	
0,825000	0,66	-0,104870	
0,836000	0,66	-0,095040	
0,847000	0,66	-0,089460	
0,858000	0,66	-0,103350	
0,869000	0,66	-0,109780	
0,880000	0,66	-0,107050	
0,891000	0,66	-0,105770	
0,902000	0,66	-0,079040	
0,913000	0,66	-0,059540	
0,924000	0,66	-0,054240	
0,935000	0,66	-0,065730	
0,946000	0,66	-0,085770	
0,957000	0,66	-0,112470	
0,968000	0,66	-0,121240	
0,979000	0,66	-0,103240	
0,990000	0,66	-0,099620	
1,001000	0,66	-0,107850	
1,012000	0,66	-0,102930	
1,023000	0,66	-0,109750	
1,034000	0,66	-0,106870	
1,045000	0,66	-0,096620	
1,056000	0,66	-0,094770	
1,067000	0,66	-0,085670	
1,078000	0,66	-0,087170	
1,089000	0,66	-0,083790	
1,100000	0,66	-0,074770	
1,111000	0,66	-0,079060	
1,122000	0,66	-0,088130	
1,133000	0,66	-0,101830	
1,144000	0,66	-0,094060	
1,155000	0,66	-0,085520	
1,166000	0,66	-0,077700	
1,177000	0,66	-0,085480	
1,188000	0,66	-0,095430	
1,199000	0,66	-0,092660	
1,210000	0,66	-0,073320	
1,221000	0,66	-0,082140	
1,232000	0,66	-0,082060	
1,243000	0,66	-0,090820	
1,254000	0,66	-0,093340	
1,265000	0,66	-0,099740	
1,276000	0,66	-0,096760	
1,287000	0,66	-0,102920	
1,298000	0,66	-0,118390	
1,309000	0,66	-0,200590	
1,320000	0,66	-0,381300	
1,331000	0,66	-0,608820	
1,342000	0,66	-0,826780	
1,353000	0,66	-0,927680	
1,364000	0,66	-0,910880	
1,375000	0,66	-0,794020	
1,386000	0,66	-0,620670	
1,397000	0,66	-0,435790	
1,408000	0,66	-0,285410	
1,419000	0,66	-0,179020	
1,430000	0,66	-0,092840	
1,441000	0,66	-0,023650	
1,452000	0,66	0,059670	
1,463000	0,66	0,090060	
1,474000	0,66	0,150310	
1,485000	0,66	0,219410	
1,496000	0,66	0,264440	
1,507000	0,66	0,339130	
1,518000	0,66	0,394980	
1,529000	0,66	0,453350	
1,540000	0,66	0,529100	
1,551000	0,66	0,594480	
1,562000	0,66	0,636720	
1,573000	0,66	0,679400	
1,584000	0,66	0,714870	
1,595000	0,66	0,708270	
1,606000	0,66	0,689290	
1,617000	0,66	0,645050	
1,628000	0,66	0,585000	
1,639000	0,66	0,488190	
1,650000	0,66	0,375830	
1,661000	0,66	0,254630	
1,672000	0,66	0,135120	
1,683000	0,66	0,029090	
1,694000	0,66	-0,054740	
1,705000	0,66	-0,126570	
1,716000	0,66	-0,179170	
1,727000	0,66	-0,196820	
1,738000	0,66	-0,180220	
1,749000	0,66	-0,156940	
1,760000	0,66	-0,139720	
1,771000	0,66	-0,121900	
1,782000	0,66	-0,096470	
1,793000	0,66	-0,059550	
1,804000	0,66	-0,029740	
1,815000	0,66	-0,006960	
1,826000	0,66	0,025270	
1,837000	0,66	0,062120	
1,848000	0,66	0,076360	
1,859000	0,66	0,098260	
1,870000	0,66	0,101400	
1,881000	0,66	0,108460	
1,892000	0,66	0,122250	
1,903000	0,66	0,149740	
1,914000	0,66	0,167260	
1,925000	0,66	0,173430	
1,936000	0,66	0,188050	
1,947000	0,66	0,198160	
1,958000	0,66	0,198190	
1,969000	0,66	0,201580	
1,980000	0,66	0,211410	
1,991000	0,66	0,207520	
2,002000	0,66	0,207310	
2,013000	0,66	0,196520	
2,024000	0,66	0,205130	
2,035000	0,66	0,212010	
2,046000	0,66	0,225780	
2,057000	0,66	0,220940	
2,068000	0,66	0,225650	
2,079000	0,66	0,226870	
2,090000	0,66	0,218120	
2,101000	0,66	0,210180	
2,112000	0,66	0,228280	
2,123000	0,66	0,234220	
2,134000	0,66	0,241000	
2,145000	0,66	0,230810	
2,156000	0,66	0,220520	
2,167000	0,66	0,175360	
2,178000	0,66	0,036360	
2,189000	0,66	-0,300570	
2,200000	0,66	-0,761110	
2,211000	0,66	-1,163550	
2,222000	0,66	-1,416680	
2,233000	0,66	-1,506940	
2,244000	0,66	-1,452700	
2,255000	0,66	-1,304770	
2,266000	0,66	-1,126070	
2,277000	0,66	-0,947110	
2,288000	0,66	-0,758550	
2,299000	0,66	-0,611150	
2,310000	0,66	-0,479890	
2,321000	0,66	-0,374290	
2,332000	0,66	-0,292690	
2,343000	0,66	-0,233460	
2,354000	0,66	-0,199900	
2,365000	0,66	-0,179670	
2,376000	0,66	-0,157330	
2,387000	0,66	-0,131140	
2,398000	0,66	-0,114120	
2,409000	0,66	-0,106230	
2,420000	0,66	-0,108820	
2,431000	0,66	-0,101870	
2,442000	0,66	-0,085300	
2,453000	0,66	-0,089160	
2,464000	0,66	-0,097400	
2,475000	0,66	-0,101290	
2,486000	0,66	-0,093520	
2,497000	0,66	-0,081530	
2,508000	0,66	-0,090290	
2,519000	0,66	-0,089360	
2,530000	0,66	-0,091010	
2,541000	0,66	-0,103690	
2,552000	0,66	-0,113520	
2,563000	0,66	-0,108290	
2,574000	0,66	-0,089670	
2,585000	0,66	-0,083280	
2,596000	0,66	-0,084120	
2,607000	0,66	-0,089180	
2,618000	0,66	-0,080390	
2,629000	0,66	-0,082170	
2,640000	0,66	-0,104730	
2,651000	0,66	-0,102470	
2,662000	0,66	-0,096450	
2,673000	0,66	-0,088770	
2,684000	0,66	-0,079500	
2,695000	0,66	-0,088190	
2,706000	0,66	-0,087600	
2,717000	0,66	-0,090260	
2,728000	0,66	-0,085230	
2,739000	0,66	-0,070910	
2,750000	0,66	-0,083550	
2,761000	0,66	-0,081910	
2,772000	0,66	-0,089590	
2,783000	0,66	-0,090910	
2,794000	0,66	-0,078070	
2,805000	0,66	-0,067370	
2,816000	0,66	-0,075960	
2,827000	0,66	-0,063580	
2,838000	0,66	-0,066560	
2,849000	0,66	-0,049820	
2,860000	0,66	-0,045550	
2,871000	0,66	-0,058010	
2,882000	0,66	-0,054200	
2,893000	0,66	-0,061270	
2,904000	0,66	-0,068970	
2,915000	0,66	-0,076900	
2,926000	0,66	-0,074570	
2,937000	0,66	-0,074020	
2,948000	0,66	-0,074930	
2,959000	0,66	-0,077870	
2,970000	0,66	-0,091170	
2,981000	0,66	-0,103930	
2,992000	0,66	-0,101310	
3,003000	0,66	-0,094650	
3,014000	0,66	-0,085650	
3,025000	0,66	-0,086070	
3,036000	0,66	-0,088380	
3,047000	0,66	-0,080210	
3,058000	0,66	-0,073680	
3,069000	0,66	-0,071040	
3,080000	0,66	-0,070780	
3,091000	0,66	-0,071160	
3,102000	0,66	-0,078300	
3,113000	0,66	-0,087450	
3,124000	0,66	-0,081650	
3,135000	0,66	-0,077530	
3,146000	0,66	-0,082400	
3,157000	0,66	-0,077370	
3,168000	0,66	-0,063830	
3,179000	0,66	-0,051020	
3,190000	0,66	-0,042650	
3,201000	0,66	-0,042500	
3,212000	0,66	-0,053130	
3,223000	0,66	-0,065670	
3,234000	0,66	-0,078340	
3,245000	0,66	-0,094790	
3,256000	0,66	-0,098240	
3,267000	0,66	-0,098320	
3,278000	0,66	-0,102010	
3,289000	0,66	-0,104230	
3,300000	0,66	-0,109400	
3,311000	0,66	-0,099260	
3,322000	0,66	-0,074440	
3,333000	0,66	-0,063070	
3,344000	0,66	-0,069040	
3,355000	0,66	-0,076550	
3,366000	0,66	-0,071530	
3,377000	0,66	-0,065470	
3,388000	0,66	-0,070700	
3,399000	0,66	-0,076980	
3,410000	0,66	-0,071710	
3,421000	0,66	-0,059530	
3,432000	0,66	-0,062420	
3,443000	0,66	-0,065700	
3,454000	0,66	-0,058730	
3,465000	0,66	-0,057380	
3,476000	0,66	-0,078390	
3,487000	0,66	-0,066390	
3,498000	0,66	-0,063190	
3,509000	0,66	-0,073110	
3,520000	0,66	-0,064120	
3,531000	0,66	-0,063310	
3,542000	0,66	-0,072820	
3,553000	0,66	-0,090510	
3,564000	0,66	-0,097210	
3,575000	0,66	-0,099660	
3,586000	0,66	-0,097670	
3,597000	0,66	-0,091110	
3,608000	0,66	-0,094540	
3,619000	0,66	-0,106970	
3,630000	0,66	-0,093740	
3,641000	0,66	-0,083700	
3,652000	0,66	-0,091040	
3,663000	0,66	-0,077990	
3,674000	0,66	-0,073140	
3,685000	0,66	-0,071320	
3,696000	0,66	-0,076550	
3,707000	0,66	-0,084600	
3,718000	0,66	-0,068320	
3,729000	0,66	-0,084730	
3,740000	0,66	-0,100150	
3,751000	0,66	-0,102160	
3,762000	0,66	-0,098890	
3,773000	0,66	-0,098450	
3,784000	0,66	-0,093150	
3,795000	0,66	-0,087440	
3,806000	0,66	-0,090460	
3,817000	0,66	-0,078870	
3,828000	0,66	-0,076970	
3,839000	0,66	-0,085630	
3,850000	0,66	-0,089490	
3,861000	0,66	-0,092260	
3,872000	0,66	-0,083830	
3,883000	0,66	-0,078760	
3,894000	0,66	-0,089690	
3,905000	0,66	-0,088340	
3,916000	0,66	-0,066740	
3,927000	0,66	-0,068900	
3,938000	0,66	-0,079870	
3,949000	0,66	-0,078270	
3,960000	0,66	-0,075710	
3,971000	0,66	-0,085510	
3,982000	0,66	-0,090690	
3,993000	0,66	-0,085240	
4,004000	0,66	-0,084430	
4,015000	0,66	-0,079710	
4,026000	0,66	-0,087670	
4,037000	0,66	-0,078110	
4,048000	0,66	-0,082040	
4,059000	0,66	-0,106510	
4,070000	0,66	-0,104480	
4,081000	0,66	-0,087310	
4,092000	0,66	-0,055380	
4,103000	0,66	-0,073220	
4,114000	0,66	-0,072910	
4,125000	0,66	-0,069850	
4,136000	0,66	-0,071740	
4,147000	0,66	-0,078500	
4,158000	0,66	-0,070460	
4,169000	0,66	-0,072410	
4,180000	0,66	-0,050930	
4,191000	0,66	-0,074670	
4,202000	0,66	-0,081760	
4,213000	0,66	-0,073010	
4,224000	0,66	-0,059830	
4,235000	0,66	-0,050580	
4,246000	0,66	-0,059580	
4,257000	0,66	-0,072770	
4,268000	0,66	-0,076840	
4,279000	0,66	-0,076240	
4,290000	0,66	-0,074650	
4,301000	0,66	-0,066600	
4,312000	0,66	-0,085090	
4,323000	0,66	-0,096360	
4,334000	0,66	-0,088620	
4,345000	0,66	-0,075250	
4,356000	0,66	-0,057460	
4,367000	0,66	-0,062470	
4,378000	0,66	-0,078530	
4,389000	0,66	-0,091700	
4,400000	0,66	-0,103130	
4,411000	0,66	-0,108460	
4,422000	0,66	-0,109150	
4,433000	0,66	-0,103430	
4,444000	0,66	-0,104100	
4,455000	0,66	-0,100200	
4,466000	0,66	-0,102020	
4,477000	0,66	-0,097150	
4,488000	0,66	-0,091580	
4,499000	0,66	-0,091300	
4,510000	0,66	-0,095670	
4,521000	0,66	-0,090210	
4,532000	0,66	-0,077400	
4,543000	0,66	-0,070530	
4,554000	0,66	-0,073580	
4,565000	0,66	-0,083040	
4,576000	0,66	-0,099310	
4,587000	0,66	-0,110720	
4,598000	0,66	-0,093410	
4,609000	0,66	-0,078150	
4,620000	0,66	-0,076640	
4,631000	0,66	-0,075830	
4,642000	0,66	-0,075320	
4,653000	0,66	-0,095240	
4,664000	0,66	-0,097190	
4,675000	0,66	-0,095010	
4,686000	0,66	-0,077330	
4,697000	0,66	-0,074260	
4,708000	0,66	-0,084590	
4,719000	0,66	-0,092390	
4,730000	0,66	-0,088310	
4,741000	0,66	-0,088830	
4,752000	0,66	-0,090180	
4,763000	0,66	-0,093310	
4,774000	0,66	-0,087940	
4,785000	0,66	-0,092160	
4,796000	0,66	-0,098190	
4,807000	0,66	-0,104090	
4,818000	0,66	-0,094200	
4,829000	0,66	-0,092210	
4,840000	0,66	-0,093570	
4,851000	0,66	-0,099140	
4,862000	0,66	-0,098350	
4,873000	0,66	-0,071660	
4,884000	0,66	-0,074620	
4,895000	0,66	-0,069100	
4,906000	0,66	-0,082490	
4,917000	0,66	-0,101790	
4,928000	0,66	-0,107160	
4,939000	0,66	-0,106370	
4,950000	0,66	-0,105580	
4,961000	0,66	-0,111270	
4,972000	0,66	-0,105320	
4,983000	0,66	-0,101480	
4,994000	0,66	-0,084530	
5,005000	0,66	-0,075690	
5,016000	0,66	-0,067180	
5,027000	0,66	-0,068050	
5,038000	0,66	-0,059090	
5,049000	0,66	-0,060460	
5,060000	0,66	-0,057710	
5,071000	0,66	-0,063870	
5,082000	0,66	-0,078760	
5,093000	0,66	-0,075710	
5,104000	0,66	-0,079430	
5,115000	0,66	-0,086490	
5,126000	0,66	-0,094760	
5,137000	0,66	-0,094510	
5,148000	0,66	-0,089360	
5,159000	0,66	-0,087140	
5,170000	0,66	-0,092420	
5,181000	0,66	-0,080580	
5,192000	0,66	-0,079830	
5,203000	0,66	-0,088470	
5,214000	0,66	-0,091290	
5,225000	0,66	-0,076540	
5,236000	0,66	-0,073380	
5,247000	0,66	-0,087100	
5,258000	0,66	-0,091200	
5,269000	0,66	-0,084160	
5,280000	0,66	-0,092980	
5,291000	0,66	-0,113960	
5,302000	0,66	-0,105250	
5,313000	0,66	-0,096010	
5,324000	0,66	-0,077830	
5,335000	0,66	-0,078570	
5,346000	0,66	-0,091250	
5,357000	0,66	-0,079380	
5,368000	0,66	-0,078240	
5,379000	0,66	-0,078650	
5,390000	0,66	-0,072030	
5,401000	0,66	-0,055780	
5,412000	0,66	-0,050310	
5,423000	0,66	-0,054410	
5,434000	0,66	-0,051760	
5,445000	0,66	-0,059000	
5,456000	0,66	-0,068850	
5,467000	0,66	-0,081950	
5,478000	0,66	-0,087030	
5,489000	0,66	-0,089130	
5,500000	0,66	-0,088230	
5,511000	0,66	-0,087390	
5,522000	0,66	-0,088750	
5,533000	0,66	-0,091860	
5,544000	0,66	-0,100220	
5,555000	0,66	-0,121770	
5,566000	0,66	-0,108870	
5,577000	0,66	-0,111600	
5,588000	0,66	-0,099090	
5,599000	0,66	-0,087500	
5,610000	0,66	-0,091700	
5,621000	0,66	-0,108530	
5,632000	0,66	-0,101410	
5,643000	0,66	-0,092370	
5,654000	0,66	-0,089470	
5,665000	0,66	-0,098360	
5,676000	0,66	-0,111460	
5,687000	0,66	-0,107330	
5,698000	0,66	-0,115950	
5,709000	0,66	-0,104650	
5,720000	0,66	-0,097480	
5,731000	0,66	-0,098200	
5,742000	0,66	-0,082150	
5,753000	0,66	-0,068450	
5,764000	0,66	-0,062220	
5,775000	0,66	-0,075180	
5,786000	0,66	-0,084880	
5,797000	0,66	-0,087360	
5,808000	0,66	-0,094810	
5,819000	0,66	-0,100270	
5,830000	0,66	-0,098470	
5,841000	0,66	-0,092250	
5,852000	0,66	-0,099860	
5,863000	0,66	-0,114850	
5,874000	0,66	-0,115930	
5,885000	0,66	-0,102160	
5,896000	0,66	-0,094660	
5,907000	0,66	-0,095040	
5,918000	0,66	-0,100310	
5,929000	0,66	-0,098040	
5,940000	0,66	-0,098450	
5,951000	0,66	-0,096230	
5,962000	0,66	-0,090760	
5,973000	0,66	-0,100970	
5,984000	0,66	-0,108520	
5,995000	0,66	-0,117590	
6,006000	0,66	-0,121370	
6,017000	0,66	-0,112140	
6,028000	0,66	-0,103180	
6,039000	0,66	-0,102050	
6,050000	0,66	-0,099540	
6,061000	0,66	-0,098090	
6,072000	0,66	-0,092860	
6,083000	0,66	-0,089250	
6,094000	0,66	-0,073750	
6,105000	0,66	-0,074260	
6,116000	0,66	-0,083040	
6,127000	0,66	-0,092810	
6,138000	0,66	-0,094510	
6,149000	0,66	-0,108830	
6,160000	0,66	-0,129080	
6,171000	0,66	-0,138610	
6,182000	0,66	-0,163960	
6,193000	0,66	-0,159050	
6,204000	0,66	-0,132770	
6,215000	0,66	-0,132090	
6,226000	0,66	-0,117730	
6,237000	0,66	-0,121970	
6,248000	0,66	-0,116550	
6,259000	0,66	-0,142030	
6,270000	0,66	-0,144910	
6,281000	0,66	-0,138700	
6,292000	0,66	-0,134290	
6,303000	0,66	-0,124200	
6,314000	0,66	-0,105590	
6,325000	0,66	-0,113430	
6,336000	0,66	-0,102900	
6,347000	0,66	-0,122510	
6,358000	0,66	-0,124590	
6,369000	0,66	-0,119770	
6,380000	0,66	-0,117460	
6,391000	0,66	-0,121180	
6,402000	0,66	-0,115600	
6,413000	0,66	-0,113440	
6,424000	0,66	-0,127540	
6,435000	0,66	-0,148670	
6,446000	0,66	-0,145290	
6,457000	0,66	-0,127020	
6,468000	0,66	-0,116240	
6,479000	0,66	-0,119530	
6,490000	0,66	-0,111900	
6,501000	0,66	-0,103080	
6,512000	0,66	-0,113700	
6,523000	0,66	-0,124840	
6,534000	0,66	-0,137400	
6,545000	0,66	-0,146210	
6,556000	0,66	-0,140400	
6,567000	0,66	-0,129280	
6,578000	0,66	-0,127820	
6,589000	0,66	-0,137810	
6,600000	0,66	-0,139030	
6,611000	0,66	-0,139340	
6,622000	0,66	-0,133960	
6,633000	0,66	-0,123090	
6,644000	0,66	-0,133120	
6,655000	0,66	-0,136780	
6,666000	0,66	-0,141500	
6,677000	0,66	-0,146170	
6,688000	0,66	-0,133550	
6,699000	0,66	-0,140420	
6,710000	0,66	-0,134490	
6,721000	0,66	-0,140460	
6,732000	0,66	-0,152420	
6,743000	0,66	-0,159580	
6,754000	0,66	-0,147170	
6,765000	0,66	-0,134660	
6,776000	0,66	-0,145090	
6,787000	0,66	-0,154470	
6,798000	0,66	-0,142550	
6,809000	0,66	-0,146280	
6,820000	0,66	-0,147430	
6,831000	0,66	-0,154170	
6,842000	0,66	-0,154590	
6,853000	0,66	-0,156860	
6,864000	0,66	-0,158640	
6,875000	0,66	-0,152990	
6,886000	0,66	-0,149090	
6,897000	0,66	-0,152210	
6,908000	0,66	-0,155830	
6,919000	0,66	-0,153400	
6,930000	0,66	-0,138960	
6,941000	0,66	-0,132450	
6,952000	0,66	-0,125170	
6,963000	0,66	-0,145610	
6,974000	0,66	-0,147060	
6,985000	0,66	-0,150900	
6,996000	0,66	-0,145770	
7,007000	0,66	-0,149110	
7,018000	0,66	-0,133180	
7,029000	0,66	-0,124880	
7,040000	0,66	-0,113270	
7,051000	0,66	-0,117710	
7,062000	0,66	-0,116450	
7,073000	0,66	-0,132310	
7,084000	0,66	-0,161530	
7,095000	0,66	-0,178710	
7,106000	0,66	-0,172550	
7,117000	0,66	-0,151800	
7,128000	0,66	-0,153080	
7,139000	0,66	-0,156370	
7,150000	0,66	-0,157000	
7,161000	0,66	-0,155320	
7,172000	0,66	-0,147410	
7,183000	0,66	-0,145170	
7,194000	0,66	-0,157730	
7,205000	0,66	-0,161680	
7,216000	0,66	-0,156370	
7,227000	0,66	-0,153160	
7,238000	0,66	-0,157140	
7,249000	0,66	-0,141920	
7,260000	0,66	-0,139790	
7,271000	0,66	-0,144160	
7,282000	0,66	-0,155230	
7,293000	0,66	-0,164860	
7,304000	0,66	-0,154680	
7,315000	0,66	-0,146270	
7,326000	0,66	-0,147010	
7,337000	0,66	-0,140510	
7,348000	0,66	-0,137730	
7,359000	0,66	-0,145130	
7,370000	0,66	-0,152910	
7,381000	0,66	-0,144970	
7,392000	0,66	-0,119110	
7,403000	0,66	-0,128960	
7,414000	0,66	-0,161580	
7,425000	0,66	-0,169850	
7,436000	0,66	-0,166090	
7,447000	0,66	-0,166080	
7,458000	0,66	-0,179980	
7,469000	0,66	-0,191490	
7,480000	0,66	-0,181280	
7,491000	0,66	-0,167080	
7,502000	0,66	-0,150300	
7,513000	0,66	-0,133560	
7,524000	0,66	-0,146190	
7,535000	0,66	-0,179640	
7,546000	0,66	-0,176170	
7,557000	0,66	-0,169870	
7,568000	0,66	-0,177640	
7,579000	0,66	-0,167640	
7,590000	0,66	-0,172680	
7,601000	0,66	-0,181460	
7,612000	0,66	-0,158160	
7,623000	0,66	-0,150940	
7,634000	0,66	-0,155270	
7,645000	0,66	-0,175450	
7,656000	0,66	-0,192350	
7,667000	0,66	-0,186720	
7,678000	0,66	-0,176860	
7,689000	0,66	-0,155910	
7,700000	0,66	-0,150620	
7,711000	0,66	-0,143180	
7,722000	0,66	-0,142660	
7,733000	0,66	-0,140450	
7,744000	0,66	-0,146490	
7,755000	0,66	-0,145070	
7,766000	0,66	-0,144040	
7,777000	0,66	-0,165820	
7,788000	0,66	-0,183890	
7,799000	0,66	-0,173860	
7,810000	0,66	-0,166290	
7,821000	0,66	-0,153170	
7,832000	0,66	-0,159730	
7,843000	0,66	-0,150980	
7,854000	0,66	-0,152240	
7,865000	0,66	-0,149580	
7,876000	0,66	-0,149700	
7,887000	0,66	-0,139210	
7,898000	0,66	-0,113560	
7,909000	0,66	-0,110700	
7,920000	0,66	-0,126870	
7,931000	0,66	-0,133070	
7,942000	0,66	-0,122680	
7,953000	0,66	-0,126750	
7,964000	0,66	-0,139640	
7,975000	0,66	-0,147520	
7,986000	0,66	-0,157290	
7,997000	0,66	-0,155600	
8,008000	0,66	-0,145770	
8,019000	0,66	-0,140760	
8,030000	0,66	-0,140930	
8,041000	0,66	-0,155510	
8,052000	0,66	-0,173190	
8,063000	0,66	-0,172030	
8,074000	0,66	-0,166800	
8,085000	0,66	-0,168980	
8,096000	0,66	-0,171580	
8,107000	0,66	-0,167650	
8,118000	0,66	-0,154100	
8,129000	0,66	-0,157680	
8,140000	0,66	-0,159460	
8,151000	0,66	-0,159320	
8,162000	0,66	-0,157290	
8,173000	0,66	-0,159720	
8,184000	0,66	-0,176390	
8,195000	0,66	-0,194790	
8,206000	0,66	-0,185310	
8,217000	0,66	-0,166730	
8,228000	0,66	-0,158740	
8,239000	0,66	-0,171900	
8,250000	0,66	-0,176310	
8,261000	0,66	-0,166310	
8,272000	0,66	-0,154730	
8,283000	0,66	-0,132590	
8,294000	0,66	-0,129480	
8,305000	0,66	-0,141270	
8,316000	0,66	-0,143020	
8,327000	0,66	-0,151650	
8,338000	0,66	-0,144850	
8,349000	0,66	-0,142730	
8,360000	0,66	-0,139100	
8,371000	0,66	-0,155880	
8,382000	0,66	-0,162330	
8,393000	0,66	-0,157150	
8,404000	0,66	-0,177090	
8,415000	0,66	-0,169600	
8,426000	0,66	-0,162400	
8,437000	0,66	-0,154230	
8,448000	0,66	-0,129960	
8,459000	0,66	-0,136530	
8,470000	0,66	-0,143350	
8,481000	0,66	-0,146460	
8,492000	0,66	-0,144140	
8,503000	0,66	-0,137300	
8,514000	0,66	-0,124630	
8,525000	0,66	-0,122870	
8,536000	0,66	-0,122710	
8,547000	0,66	-0,139620	
8,558000	0,66	-0,151370	
8,569000	0,66	-0,147310	
8,580000	0,66	-0,140250	
8,591000	0,66	-0,138960	
8,602000	0,66	-0,149680	
8,613000	0,66	-0,157140	
8,624000	0,66	-0,156490	
8,635000	0,66	-0,170030	
8,646000	0,66	-0,177740	
8,657000	0,66	-0,176490	
8,668000	0,66	-0,170850	
8,679000	0,66	-0,169510	
8,690000	0,66	-0,164150	
8,701000	0,66	-0,152440	
8,712000	0,66	-0,155100	
8,723000	0,66	-0,171360	
8,734000	0,66	-0,176510	
8,745000	0,66	-0,164450	
8,756000	0,66	-0,151590	
8,767000	0,66	-0,142840	
8,778000	0,66	-0,141660	
8,789000	0,66	-0,142100	
8,800000	0,66	-0,133270	
8,811000	0,66	-0,130990	
8,822000	0,66	-0,132060	
8,833000	0,66	-0,131380	
8,844000	0,66	-0,149800	
8,855000	0,66	-0,163480	
8,866000	0,66	-0,157670	
8,877000	0,66	-0,144750	
8,888000	0,66	-0,156360	
8,899000	0,66	-0,158790	
8,910000	0,66	-0,144090	
8,921000	0,66	-0,140960	
8,932000	0,66	-0,140190	
8,943000	0,66	-0,137160	
8,954000	0,66	-0,141660	
8,965000	0,66	-0,135890	
8,976000	0,66	-0,134890	
8,987000	0,66	-0,127380	
8,998000	0,66	-0,137940	
9,009000	0,66	-0,151180	
9,020000	0,66	-0,141230	
9,031000	0,66	-0,147210	
9,042000	0,66	-0,150320	
9,053000	0,66	-0,134890	
9,064000	0,66	-0,125470	
9,075000	0,66	-0,125880	
9,086000	0,66	-0,134000	
9,097000	0,66	-0,128830	
9,108000	0,66	-0,137500	
9,119000	0,66	-0,132000	
9,130000	0,66	-0,134240	
9,141000	0,66	-0,141340	
9,152000	0,66	-0,136670	
9,163000	0,66	-0,142680	
9,174000	0,66	-0,147320	
9,185000	0,66	-0,135190	
9,196000	0,66	-0,151790	
9,207000	0,66	-0,131240	
9,218000	0,66	-0,125650	
9,229000	0,66	-0,121110	
9,240000	0,66	-0,128140	
9,251000	0,66	-0,135320	
9,262000	0,66	-0,136230	
9,273000	0,66	-0,147160	
9,284000	0,66	-0,144980	
9,295000	0,66	-0,138030	
9,306000	0,66	-0,135580	
9,317000	0,66	-0,142410	
9,328000	0,66	-0,136590	
9,339000	0,66	-0,134250	
9,350000	0,66	-0,151930	
9,361000	0,66	-0,156870	
9,372000	0,66	-0,167220	
9,383000	0,66	-0,177300	
9,394000	0,66	-0,176230	
9,405000	0,66	-0,173470	
9,416000	0,66	-0,172740	
9,427000	0,66	-0,165330	
9,438000	0,66	-0,161200	
9,449000	0,66	-0,157450	
9,460000	0,66	-0,149140	
9,471000	0,66	-0,149630	
9,482000	0,66	-0,136070	
9,493000	0,66	-0,128310	
9,504000	0,66	-0,134210	
9,515000	0,66	-0,148060	
9,526000	0,66	-0,140810	
9,537000	0,66	-0,136250	
9,548000	0,66	-0,145200	
9,559000	0,66	-0,140350	
9,570000	0,66	-0,145080	
9,581000	0,66	-0,154140	
9,592000	0,66	-0,136180	
9,603000	0,66	-0,143090	
9,614000	0,66	-0,163130	
9,625000	0,66	-0,176700	
9,636000	0,66	-0,177100	
9,647000	0,66	-0,172340	
9,658000	0,66	-0,162540	
9,669000	0,66	-0,145250	
9,680000	0,66	-0,148420	
9,691000	0,66	-0,163400	
9,702000	0,66	-0,155480	
9,713000	0,66	-0,153060	
9,724000	0,66	-0,154140	
9,735000	0,66	-0,159480	
9,746000	0,66	-0,158510	
9,757000	0,66	-0,149500	
9,768000	0,66	-0,148010	
9,779000	0,66	-0,141130	
9,790000	0,66	-0,157790	
9,801000	0,66	-0,174060	
9,812000	0,66	-0,160800	
9,823000	0,66	-0,148810	
9,834000	0,66	-0,141650	
9,845000	0,66	-0,137780	
9,856000	0,66	-0,145470	
9,867000	0,66	-0,133850	
9,878000	0,66	-0,134340	
9,889000	0,66	-0,138660	
9,900000	0,66	-0,128850	
9,911000	0,66	-0,127510	
9,922000	0,66	-0,132730	
9,933000	0,66	-0,136310	
9,944000	0,66	-0,151710	
9,955000	0,66	-0,158760	
9,966000	0,66	-0,153980	
9,977000	0,66	-0,155250	
9,988000	0,66	-0,151220	
9,999000	0,66	-0,140800	
10,010000	0,66	-0,124170	
10,021000	0,66	-0,123140	
10,032000	0,66	-0,132520	
10,043000	0,66	-0,133270	
10,054000	0,66	-0,137760	
10,065000	0,66	-0,133380	
10,076000	0,66	-0,125360	
10,087000	0,66	-0,132760	
10,098000	0,66	-0,145900	
10,109000	0,66	-0,147690	
10,120000	0,66	-0,141070	
10,131000	0,66	-0,134130	
10,142000	0,66	-0,136160	
10,153000	0,66	-0,142120	
10,164000	0,66	-0,141730	
10,175000	0,66	-0,148790	
10,186000	0,66	-0,154830	
10,197000	0,66	-0,143570	
10,208000	0,66	-0,125530	
10,219000	0,66	-0,113600	
10,230000	0,66	-0,101440	
10,241000	0,66	-0,102930	
10,252000	0,66	-0,127640	
10,263000	0,66	-0,139520	
10,274000	0,66	-0,141810	
10,285000	0,66	-0,147170	
10,296000	0,66	-0,153340	
10,307000	0,66	-0,156180	
10,318000	0,66	-0,149370	
10,329000	0,66	-0,151560	
10,340000	0,66	-0,159850	
10,351000	0,66	-0,144960	
10,362000	0,66	-0,144800	
10,373000	0,66	-0,141860	
10,384000	0,66	-0,143730	
10,395000	0,66	-0,152420	
10,406000	0,66	-0,135720	
10,417000	0,66	-0,125170	
10,428000	0,66	-0,121180	
10,439000	0,66	-0,136750	
10,450000	0,66	-0,156790	
10,461000	0,66	-0,171910	
10,472000	0,66	-0,173660	
10,483000	0,66	-0,163030	
10,494000	0,66	-0,147640	
10,505000	0,66	-0,136630	
10,516000	0,66	-0,099360	
10,527000	0,66	-0,094070	
10,538000	0,66	-0,092030	
10,549000	0,66	-0,098950	
10,560000	0,66	-0,118920	
10,571000	0,66	-0,135290	
10,582000	0,66	-0,141030	
10,593000	0,66	-0,132490	
10,604000	0,66	-0,137110	
10,615000	0,66	-0,156690	
10,626000	0,66	-0,152440	
10,637000	0,66	-0,144590	
10,648000	0,66	-0,152190	
10,659000	0,66	-0,155240	
10,670000	0,66	-0,158000	
10,681000	0,66	-0,167560	
10,692000	0,66	-0,181920	
10,703000	0,66	-0,181710	
10,714000	0,66	-0,180480	
10,725000	0,66	-0,167420	
10,736000	0,66	-0,150860	
10,747000	0,66	-0,147140	
10,758000	0,66	-0,153870	
10,769000	0,66	-0,169890	
10,780000	0,66	-0,171310	
10,791000	0,66	-0,154360	
10,802000	0,66	-0,150380	
10,813000	0,66	-0,153760	
10,824000	0,66	-0,154280	
10,835000	0,66	-0,154140	
10,846000	0,66	-0,154400	
10,857000	0,66	-0,165110	
10,868000	0,66	-0,163780	
10,879000	0,66	-0,144550	
10,890000	0,66	-0,138590	
10,901000	0,66	-0,136820	
10,912000	0,66	-0,130630	
10,923000	0,66	-0,133320	
10,934000	0,66	-0,130300	
10,945000	0,66	-0,139440	
10,956000	0,66	-0,144630	
10,967000	0,66	-0,144280	
10,978000	0,66	-0,141420	
10,989000	0,66	-0,129220	
11,000000	0,66	-0,112720	
11,011000	0,66	-0,123940	
11,022000	0,66	-0,119920	
11,033000	0,66	-0,137940	
11,044000	0,66	-0,160210	
11,055000	0,66	-0,154400	
11,066000	0,66	-0,150440	
11,077000	0,66	-0,141540	
11,088000	0,66	-0,137170	
11,099000	0,66	-0,153360	
11,110000	0,66	-0,151790	
11,121000	0,66	-0,154590	
11,132000	0,66	-0,149240	
11,143000	0,66	-0,150500	
11,154000	0,66	-0,141970	
11,165000	0,66	-0,135800	
11,176000	0,66	-0,143670	
11,187000	0,66	-0,160120	
11,198000	0,66	-0,165320	
11,209000	0,66	-0,163130	
11,220000	0,66	-0,156580	
11,231000	0,66	-0,150730	
11,242000	0,66	-0,144430	
11,253000	0,66	-0,140870	
11,264000	0,66	-0,148580	
11,275000	0,66	-0,144590	
11,286000	0,66	-0,147380	
11,297000	0,66	-0,145080	
11,308000	0,66	-0,125340	
11,319000	0,66	-0,124370	
11,330000	0,66	-0,142450	
11,341000	0,66	-0,171200	
11,352000	0,66	-0,163050	
11,363000	0,66	-0,147340	
11,374000	0,66	-0,130960	
11,385000	0,66	-0,128200	
11,396000	0,66	-0,133290	
11,407000	0,66	-0,138560	
11,418000	0,66	-0,145940	
11,429000	0,66	-0,160000	
11,440000	0,66	-0,157470	
11,451000	0,66	-0,145500	
11,462000	0,66	-0,134110	
11,473000	0,66	-0,126150	
11,484000	0,66	-0,127780	
11,495000	0,66	-0,134640	
11,506000	0,66	-0,142590	
11,517000	0,66	-0,144230	
11,528000	0,66	-0,125000	
11,539000	0,66	-0,109140	
11,550000	0,66	-0,124740	
11,561000	0,66	-0,140010	
11,572000	0,66	-0,144250	
11,583000	0,66	-0,146800	
11,594000	0,66	-0,139560	
11,605000	0,66	-0,140080	
11,616000	0,66	-0,138480	
11,627000	0,66	-0,127850	
11,638000	0,66	-0,117810	
11,649000	0,66	-0,123800	
11,660000	0,66	-0,141160	
11,671000	0,66	-0,154350	
11,682000	0,66	-0,151340	
11,693000	0,66	-0,159340	
11,704000	0,66	-0,150720	
11,715000	0,66	-0,150370	
11,726000	0,66	-0,151060	
11,737000	0,66	-0,154220	
11,748000	0,66	-0,141380	
11,759000	0,66	-0,145860	
11,770000	0,66	-0,134890	
11,781000	0,66	-0,115510	
11,792000	0,66	-0,112110	
11,803000	0,66	-0,113630	
11,814000	0,66	-0,110590	
11,825000	0,66	-0,108660	
11,836000	0,66	-0,118690	
11,847000	0,66	-0,134150	
11,858000	0,66	-0,151540	
11,869000	0,66	-0,149310	
11,880000	0,66	-0,152030	
11,891000	0,66	-0,151940	
11,902000	0,66	-0,158670	
11,913000	0,66	-0,151940	
11,924000	0,66	-0,154170	
11,935000	0,66	-0,143990	
11,946000	0,66	-0,140470	
11,957000	0,66	-0,151040	
11,968000	0,66	-0,165930	
11,979000	0,66	-0,159430	
11,990000	0,66	-0,139150	
12,001000	0,66	-0,137390	
12,012000	0,66	-0,144020	
12,023000	0,66	-0,158180	
12,034000	0,66	-0,162730	
12,045000	0,66	-0,160430	
12,056000	0,66	-0,146690	
12,067000	0,66	-0,137720	
12,078000	0,66	-0,140430	
12,089000	0,66	-0,134620	
12,100000	0,66	-0,131590	
12,111000	0,66	-0,143180	
12,122000	0,66	-0,138710	
12,133000	0,66	-0,131140	
12,144000	0,66	-0,130870	
12,155000	0,66	-0,125350	
12,166000	0,66	-0,130210	
12,177000	0,66	-0,134920	
12,188000	0,66	-0,143120	
12,199000	0,66	-0,153560	
12,210000	0,66	-0,146560	
12,221000	0,66	-0,145770	
12,232000	0,66	-0,157220	
12,243000	0,66	-0,166590	
12,254000	0,66	-0,165020	
12,265000	0,66	-0,144440	
12,276000	0,66	-0,141960	
12,287000	0,66	-0,157680	
12,298000	0,66	-0,145790	
12,309000	0,66	-0,129990	
12,320000	0,66	-0,127670	
12,331000	0,66	-0,124280	
12,342000	0,66	-0,130180	
12,353000	0,66	-0,131120	
12,364000	0,66	-0,148920	
12,375000	0,66	-0,155450	
12,386000	0,66	-0,145910	
12,397000	0,66	-0,152080	
12,408000	0,66	-0,154130	
12,419000	0,66	-0,162970	
12,430000	0,66	-0,163880	
12,441000	0,66	-0,139950	
12,452000	0,66	-0,135400	
12,463000	0,66	-0,138670	
12,474000	0,66	-0,133270	
12,485000	0,66	-0,134870	
12,496000	0,66	-0,136660	
12,507000	0,66	-0,135370	
12,518000	0,66	-0,147320	
12,529000	0,66	-0,151910	
12,540000	0,66	-0,162290	
12,551000	0,66	-0,158390	
12,562000	0,66	-0,145010	
12,573000	0,66	-0,129190	
12,584000	0,66	-0,136670	
12,595000	0,66	-0,148040	
12,606000	0,66	-0,164130	
12,617000	0,66	-0,153240	
12,628000	0,66	-0,141670	
12,639000	0,66	-0,129100	
12,650000	0,66	-0,115440	
12,661000	0,66	-0,126960	
12,672000	0,66	-0,134590	
12,683000	0,66	-0,133310	
12,694000	0,66	-0,129540	
12,705000	0,66	-0,133980	
12,716000	0,66	-0,138020	
12,727000	0,66	-0,136400	
12,738000	0,66	-0,145860	
12,749000	0,66	-0,152750	
12,760000	0,66	-0,157070	
12,771000	0,66	-0,143200	
12,782000	0,66	-0,133590	
12,793000	0,66	-0,129580	
12,804000	0,66	-0,133360	
12,815000	0,66	-0,137780	
12,826000	0,66	-0,130580	
12,837000	0,66	-0,117150	
12,848000	0,66	-0,115070	
12,859000	0,66	-0,122450	
12,870000	0,66	-0,129980	
12,881000	0,66	-0,122190	
12,892000	0,66	-0,128110	
12,903000	0,66	-0,136850	
12,914000	0,66	-0,129380	
12,925000	0,66	-0,130350	
12,936000	0,66	-0,136630	
12,947000	0,66	-0,141080	
12,958000	0,66	-0,137500	
12,969000	0,66	-0,140360	
12,980000	0,66	-0,146350	
12,991000	0,66	-0,137720	
13,002000	0,66	-0,134190	
13,013000	0,66	-0,145750	
13,024000	0,66	-0,143670	
13,035000	0,66	-0,157640	
13,046000	0,66	-0,165030	
13,057000	0,66	-0,167760	
13,068000	0,66	-0,141100	
13,079000	0,66	-0,129250	
13,090000	0,66	-0,118900	
13,101000	0,66	-0,121560	
13,112000	0,66	-0,126640	
13,123000	0,66	-0,127460	
13,134000	0,66	-0,139240	
13,145000	0,66	-0,151700	
13,156000	0,66	-0,141520	
13,167000	0,66	-0,112850	
13,178000	0,66	-0,110880	
13,189000	0,66	-0,118020	
13,200000	0,66	-0,114950	
13,211000	0,66	-0,128890	
13,222000	0,66	-0,145400	
13,233000	0,66	-0,159610	
13,244000	0,66	-0,155180	
13,255000	0,66	-0,156200	
13,266000	0,66	-0,148770	
13,277000	0,66	-0,134810	
13,288000	0,66	-0,132080	
13,299000	0,66	-0,139620	
13,310000	0,66	-0,131400	
13,321000	0,66	-0,141010	
13,332000	0,66	-0,150440	
13,343000	0,66	-0,147110	
13,354000	0,66	-0,141360	
13,365000	0,66	-0,131480	
13,376000	0,66	-0,138640	
13,387000	0,66	-0,172430	
13,398000	0,66	-0,175820	
13,409000	0,66	-0,176050	
13,420000	0,66	-0,158830	
13,431000	0,66	-0,145670	
13,442000	0,66	-0,151800	
13,453000	0,66	-0,148030	
13,464000	0,66	-0,141500	
13,475000	0,66	-0,158430	
13,486000	0,66	-0,154030	
13,497000	0,66	-0,134850	
13,508000	0,66	-0,135570	
13,519000	0,66	-0,137140	
13,530000	0,66	-0,136290	
13,541000	0,66	-0,131510	
13,552000	0,66	-0,118490	
13,563000	0,66	-0,111450	
13,574000	0,66	-0,115020	
13,585000	0,66	-0,132940	
13,596000	0,66	-0,142590	
13,607000	0,66	-0,136370	
13,618000	0,66	-0,141860	
13,629000	0,66	-0,153490	
13,640000	0,66	-0,156820	
13,651000	0,66	-0,162480	
13,662000	0,66	-0,156480	
13,673000	0,66	-0,138510	
13,684000	0,66	-0,143510	
13,695000	0,66	-0,162260	
13,706000	0,66	-0,176810	
13,717000	0,66	-0,164840	
13,728000	0,66	-0,148720	
13,739000	0,66	-0,148410	
13,750000	0,66	-0,157470	
13,761000	0,66	-0,174420	
13,772000	0,66	-0,163730	
13,783000	0,66	-0,150230	
13,794000	0,66	-0,147490	
13,805000	0,66	-0,124850	
13,816000	0,66	-0,114700	
13,827000	0,66	-0,113070	
13,838000	0,66	-0,123630	
13,849000	0,66	-0,146370	
13,860000	0,66	-0,154080	
13,871000	0,66	-0,161060	
13,882000	0,66	-0,164020	
13,893000	0,66	-0,163030	
13,904000	0,66	-0,156540	
13,915000	0,66	-0,152350	
13,926000	0,66	-0,145470	
13,937000	0,66	-0,140860	
13,948000	0,66	-0,152380	
13,959000	0,66	-0,145030	
13,970000	0,66	-0,136350	
13,981000	0,66	-0,142020	
13,992000	0,66	-0,119300	
14,003000	0,66	-0,113370	
14,014000	0,66	-0,108560	
14,025000	0,66	-0,106370	
14,036000	0,66	-0,084540	
14,047000	0,66	-0,076520	
14,058000	0,66	-0,100320	
14,069000	0,66	-0,110900	
14,080000	0,66	-0,121030	
14,091000	0,66	-0,117620	
14,102000	0,66	-0,118990	
14,113000	0,66	-0,131900	
14,124000	0,66	-0,135180	
14,135000	0,66	-0,124320	
14,146000	0,66	-0,107100	
14,157000	0,66	-0,084020	
14,168000	0,66	-0,077650	
14,179000	0,66	-0,079350	
14,190000	0,66	-0,095720	
14,201000	0,66	-0,092840	
14,212000	0,66	-0,072600	
14,223000	0,66	-0,067970	
14,234000	0,66	-0,070820	
14,245000	0,66	-0,066450	
14,256000	0,66	-0,060260	
14,267000	0,66	-0,061250	
14,278000	0,66	-0,060890	
14,289000	0,66	-0,065870	
14,300000	0,66	-0,082170	
14,311000	0,66	-0,083860	
14,322000	0,66	-0,081490	
14,333000	0,66	-0,084730	
14,344000	0,66	-0,081970	
14,355000	0,66	-0,090240	
14,366000	0,66	-0,101780	
14,377000	0,66	-0,114120	
14,388000	0,66	-0,131900	
14,399000	0,66	-0,142580	
14,410000	0,66	-0,152210	
14,421000	0,66	-0,157200	
14,432000	0,66	-0,151170	
14,443000	0,66	-0,130420	
14,454000	0,66	-0,117460	
14,465000	0,66	-0,122740	
14,476000	0,66	-0,133070	
14,487000	0,66	-0,137740	
14,498000	0,66	-0,146230	
14,509000	0,66	-0,137500	
14,520000	0,66	-0,123300	
14,531000	0,66	-0,123580	
14,542000	0,66	-0,124830	
14,553000	0,66	-0,121200	
14,564000	0,66	-0,116200	
14,575000	0,66	-0,105890	
14,586000	0,66	-0,089020	
14,597000	0,66	-0,087240	
14,608000	0,66	-0,087440	
14,619000	0,66	-0,098490	
14,630000	0,66	-0,094210	
14,641000	0,66	-0,096060	
14,652000	0,66	-0,110610	
14,663000	0,66	-0,107520	
14,674000	0,66	-0,108860	
14,685000	0,66	-0,131480	
14,696000	0,66	-0,137170	
14,707000	0,66	-0,142010	
14,718000	0,66	-0,146240	
14,729000	0,66	-0,133830	
14,740000	0,66	-0,127540	
14,751000	0,66	-0,133140	
14,762000	0,66	-0,134230	
14,773000	0,66	-0,119470	
14,784000	0,66	-0,104320	
14,795000	0,66	-0,104050	
14,806000	0,66	-0,107120	
14,817000	0,66	-0,116470	
14,828000	0,66	-0,123610	
14,839000	0,66	-0,127220	
14,850000	0,66	-0,135130	
14,861000	0,66	-0,143580	
14,872000	0,66	-0,148420	
14,883000	0,66	-0,154880	
14,894000	0,66	-0,155260	
14,905000	0,66	-0,130010	
14,916000	0,66	-0,130030	
14,927000	0,66	-0,143320	
14,938000	0,66	-0,137000	
14,949000	0,66	-0,135850	
14,960000	0,66	-0,131400	
14,971000	0,66	-0,137100	
14,982000	0,66	-0,155950	
14,993000	0,66	-0,167570	
15,004000	0,66	-0,159180	
15,015000	0,66	-0,150150	
15,026000	0,66	-0,155010	
15,037000	0,66	-0,148200	
15,048000	0,66	-0,137510	
15,059000	0,66	-0,135110	
15,070000	0,66	-0,135160	
15,081000	0,66	-0,141240	
15,092000	0,66	-0,137860	
15,103000	0,66	-0,122090	
15,114000	0,66	-0,119870	
15,125000	0,66	-0,112300	
15,136000	0,66	-0,110120	
15,147000	0,66	-0,126260	
15,158000	0,66	-0,136640	
15,169000	0,66	-0,134190	
15,180000	0,66	-0,142390	
15,191000	0,66	-0,149390	
15,202000	0,66	-0,147630	
15,213000	0,66	-0,137670	
15,224000	0,66	-0,124340	
15,235000	0,66	-0,136500	
15,246000	0,66	-0,147540	
15,257000	0,66	-0,145600	
15,268000	0,66	-0,146030	
15,279000	0,66	-0,138820	
15,290000	0,66	-0,134640	
15,301000	0,66	-0,135390	
15,312000	0,66	-0,126520	
15,323000	0,66	-0,127510	
15,334000	0,66	-0,130990	
15,345000	0,66	-0,134280	
15,356000	0,66	-0,128890	
15,367000	0,66	-0,126080	
15,378000	0,66	-0,127020	
15,389000	0,66	-0,117990	
15,400000	0,66	-0,114590	
15,411000	0,66	-0,104930	
15,422000	0,66	-0,102080	
15,433000	0,66	-0,117250	
15,444000	0,66	-0,113370	
15,455000	0,66	-0,107520	
15,466000	0,66	-0,121770	
15,477000	0,66	-0,124430	
15,488000	0,66	-0,111030	
15,499000	0,66	-0,109880	
15,510000	0,66	-0,118250	
15,521000	0,66	-0,109230	
15,532000	0,66	-0,116220	
15,543000	0,66	-0,130410	
15,554000	0,66	-0,138220	
15,565000	0,66	-0,148940	
15,576000	0,66	-0,149180	
15,587000	0,66	-0,136440	
15,598000	0,66	-0,137750	
15,609000	0,66	-0,131970	
15,620000	0,66	-0,141890	
15,631000	0,66	-0,139530	
15,642000	0,66	-0,139500	
15,653000	0,66	-0,149990	
15,664000	0,66	-0,153390	
15,675000	0,66	-0,146660	
15,686000	0,66	-0,124600	
15,697000	0,66	-0,116020	
15,708000	0,66	-0,114930	
15,719000	0,66	-0,107550	
15,730000	0,66	-0,102960	
15,741000	0,66	-0,090280	
15,752000	0,66	-0,077870	
15,763000	0,66	-0,072670	
15,774000	0,66	-0,074980	
15,785000	0,66	-0,080040	
15,796000	0,66	-0,080130	
15,807000	0,66	-0,080410	
15,818000	0,66	-0,104790	
15,829000	0,66	-0,110930	
15,840000	0,66	-0,112160	
15,851000	0,66	-0,101330	
15,862000	0,66	-0,083070	
15,873000	0,66	-0,102040	
15,884000	0,66	-0,121930	
15,895000	0,66	-0,135200	
15,906000	0,66	-0,147140	
15,917000	0,66	-0,143010	
15,928000	0,66	-0,113380	
15,939000	0,66	-0,102610	
15,950000	0,66	-0,108510	
15,961000	0,66	-0,106520	
15,972000	0,66	-0,111500	
15,983000	0,66	-0,118350	
15,994000	0,66	-0,123090	
16,005000	0,66	-0,109190	
16,016000	0,66	-0,107850	
16,027000	0,66	-0,105490	
16,038000	0,66	-0,101190	
16,049000	0,66	-0,111940	
16,060000	0,66	-0,124420	
16,071000	0,66	-0,116550	
16,082000	0,66	-0,112820	
16,093000	0,66	-0,109240	
16,104000	0,66	-0,100520	
16,115000	0,66	-0,102560	
16,126000	0,66	-0,098350	
16,137000	0,66	-0,121140	
16,148000	0,66	-0,128480	
16,159000	0,66	-0,137110	
16,170000	0,66	-0,142070	
16,181000	0,66	-0,140170	
16,192000	0,66	-0,130630	
16,203000	0,66	-0,132440	
16,214000	0,66	-0,122480	
16,225000	0,66	-0,130630	
16,236000	0,66	-0,131160	
16,247000	0,66	-0,118010	
16,258000	0,66	-0,117590	
16,269000	0,66	-0,130350	
16,280000	0,66	-0,141220	
16,291000	0,66	-0,143050	
16,302000	0,66	-0,139340	
16,313000	0,66	-0,126380	
16,324000	0,66	-0,114550	
16,335000	0,66	-0,105840	
16,346000	0,66	-0,118820	
16,357000	0,66	-0,134370	
16,368000	0,66	-0,144760	
16,379000	0,66	-0,134610	
16,390000	0,66	-0,119810	
16,401000	0,66	-0,128380	
16,412000	0,66	-0,126060	
16,423000	0,66	-0,113120	
16,434000	0,66	-0,119260	
16,445000	0,66	-0,129940	
16,456000	0,66	-0,130660	
16,467000	0,66	-0,132170	
16,478000	0,66	-0,135750	
16,489000	0,66	-0,136670	
16,500000	0,66	-0,135090	
16,511000	0,66	-0,125380	
16,522000	0,66	-0,128850	
16,533000	0,66	-0,146720	
16,544000	0,66	-0,140190	
16,555000	0,66	-0,133470	
16,566000	0,66	-0,135760	
16,577000	0,66	-0,133760	
16,588000	0,66	-0,141710	
16,599000	0,66	-0,153320	
16,610000	0,66	-0,138260	
16,621000	0,66	-0,126510	
16,632000	0,66	-0,131650	
16,643000	0,66	-0,124390	
16,654000	0,66	-0,129700	
16,665000	0,66	-0,133430	
16,676000	0,66	-0,114850	
16,687000	0,66	-0,107240	
16,698000	0,66	-0,113110	
16,709000	0,66	-0,110680	
16,720000	0,66	-0,129740	
16,731000	0,66	-0,137810	
16,742000	0,66	-0,143600	
16,753000	0,66	-0,143300	
16,764000	0,66	-0,147770	
16,775000	0,66	-0,151890	
16,786000	0,66	-0,136070	
16,797000	0,66	-0,132380	
16,808000	0,66	-0,137630	
16,819000	0,66	-0,143620	
16,830000	0,66	-0,130730	
16,841000	0,66	-0,121240	
16,852000	0,66	-0,119630	
16,863000	0,66	-0,104790	
16,874000	0,66	-0,107790	
16,885000	0,66	-0,113590	
16,896000	0,66	-0,122520	
16,907000	0,66	-0,144960	
16,918000	0,66	-0,155620	
16,929000	0,66	-0,133590	
16,940000	0,66	-0,122420	
16,951000	0,66	-0,119010	
16,962000	0,66	-0,129120	
16,973000	0,66	-0,122520	
16,984000	0,66	-0,111080	
16,995000	0,66	-0,112290	
17,006000	0,66	-0,125900	
17,017000	0,66	-0,136810	
17,028000	0,66	-0,139920	
17,039000	0,66	-0,143560	
17,050000	0,66	-0,148220	
17,061000	0,66	-0,140280	
17,072000	0,66	-0,137240	
17,083000	0,66	-0,148360	
17,094000	0,66	-0,150720	
17,105000	0,66	-0,138920	
17,116000	0,66	-0,137710	
17,127000	0,66	-0,141530	
17,138000	0,66	-0,132060	
17,149000	0,66	-0,119780	
17,160000	0,66	-0,112640	
17,171000	0,66	-0,120230	
17,182000	0,66	-0,128830	
17,193000	0,66	-0,133160	
17,204000	0,66	-0,136940	
17,215000	0,66	-0,145030	
17,226000	0,66	-0,142370	
17,237000	0,66	-0,131210	
17,248000	0,66	-0,133670	
17,259000	0,66	-0,136110	
17,270000	0,66	-0,141890	
17,281000	0,66	-0,151310	
17,292000	0,66	-0,135840	
17,303000	0,66	-0,122700	
17,314000	0,66	-0,110420	
17,325000	0,66	-0,134950	
17,336000	0,66	-0,144740	
17,347000	0,66	-0,137050	
17,358000	0,66	-0,143880	
17,369000	0,66	-0,162230	
17,380000	0,66	-0,169790	
17,391000	0,66	-0,143480	
17,402000	0,66	-0,130480	
17,413000	0,66	-0,126920	
17,424000	0,66	-0,129550	
17,435000	0,66	-0,132020	
17,446000	0,66	-0,121110	
17,457000	0,66	-0,136340	
17,468000	0,66	-0,144840	
17,479000	0,66	-0,131440	
17,490000	0,66	-0,123330	
17,501000	0,66	-0,141950	
17,512000	0,66	-0,151490	
17,523000	0,66	-0,158120	
17,534000	0,66	-0,155140	
17,545000	0,66	-0,143710	
17,556000	0,66	-0,133860	
17,567000	0,66	-0,134220	
17,578000	0,66	-0,130660	
17,589000	0,66	-0,126270	
17,600000	0,66	-0,120860	
17,611000	0,66	-0,126430	
17,622000	0,66	-0,137670	
17,633000	0,66	-0,132060	
17,644000	0,66	-0,136280	
17,655000	0,66	-0,132470	
17,666000	0,66	-0,133730	
17,677000	0,66	-0,125630	
17,688000	0,66	-0,121520	
17,699000	0,66	-0,122380	
17,710000	0,66	-0,120190	
17,721000	0,66	-0,103970	
17,732000	0,66	-0,101580	
17,743000	0,66	-0,117350	
17,754000	0,66	-0,123760	
17,765000	0,66	-0,122200	
17,776000	0,66	-0,125590	
17,787000	0,66	-0,132100	
17,798000	0,66	-0,133380	
17,809000	0,66	-0,129990	
17,820000	0,66	-0,135890	
17,831000	0,66	-0,141930	
17,842000	0,66	-0,130580	
17,853000	0,66	-0,120950	
17,864000	0,66	-0,117900	
17,875000	0,66	-0,115260	
17,886000	0,66	-0,120170	
17,897000	0,66	-0,121440	
17,908000	0,66	-0,127180	
17,919000	0,66	-0,140500	
17,930000	0,66	-0,141490	
17,941000	0,66	-0,127980	
17,952000	0,66	-0,120950	
17,963000	0,66	-0,120040	
17,974000	0,66	-0,122510	
17,985000	0,66	-0,130630	
17,996000	0,66	-0,135210	
18,007000	0,66	-0,139730	
18,018000	0,66	-0,131570	
18,029000	0,66	-0,129230	
18,040000	0,66	-0,128770	
18,051000	0,66	-0,127680	
18,062000	0,66	-0,133020	
18,073000	0,66	-0,126170	
18,084000	0,66	-0,124680	
18,095000	0,66	-0,117210	
18,106000	0,66	-0,127110	
18,117000	0,66	-0,124770	
18,128000	0,66	-0,127830	
18,139000	0,66	-0,127580	
18,150000	0,66	-0,122440	
18,161000	0,66	-0,133360	
18,172000	0,66	-0,152430	
18,183000	0,66	-0,140550	
18,194000	0,66	-0,143330	
18,205000	0,66	-0,131350	
18,216000	0,66	-0,109370	
18,227000	0,66	-0,122100	
18,238000	0,66	-0,129260	
18,249000	0,66	-0,128820	
18,260000	0,66	-0,122100	
18,271000	0,66	-0,120700	
18,282000	0,66	-0,105820	
18,293000	0,66	-0,104470	
18,304000	0,66	-0,111140	
18,315000	0,66	-0,128740	
18,326000	0,66	-0,140150	
18,337000	0,66	-0,146010	
18,348000	0,66	-0,138170	
18,359000	0,66	-0,116700	
18,370000	0,66	-0,128240	
18,381000	0,66	-0,126410	
18,392000	0,66	-0,118860	
18,403000	0,66	-0,112020	
18,414000	0,66	-0,097330	
18,425000	0,66	-0,088600	
18,436000	0,66	-0,102820	
18,447000	0,66	-0,130390	
18,458000	0,66	-0,134050	
18,469000	0,66	-0,118770	
18,480000	0,66	-0,107780	
18,491000	0,66	-0,100400	
18,502000	0,66	-0,096720	
18,513000	0,66	-0,103750	
18,524000	0,66	-0,110700	
18,535000	0,66	-0,103380	
18,546000	0,66	-0,094220	
18,557000	0,66	-0,105140	
18,568000	0,66	-0,125420	
18,579000	0,66	-0,122640	
18,590000	0,66	-0,110910	
18,601000	0,66	-0,102820	
18,612000	0,66	-0,098360	
18,623000	0,66	-0,101260	
18,634000	0,66	-0,108940	
18,645000	0,66	-0,128180	
18,656000	0,66	-0,129960	
18,667000	0,66	-0,127860	
18,678000	0,66	-0,119890	
18,689000	0,66	-0,114880	
18,700000	0,66	-0,123400	
18,711000	0,66	-0,122850	
18,722000	0,66	-0,130460	
18,733000	0,66	-0,128160	
18,744000	0,66	-0,126040	
18,755000	0,66	-0,116800	
18,766000	0,66	-0,105950	
18,777000	0,66	-0,085700	
18,788000	0,66	-0,083170	
18,799000	0,66	-0,096110	
18,810000	0,66	-0,107010	
18,821000	0,66	-0,101000	
18,832000	0,66	-0,094020	
18,843000	0,66	-0,101410	
18,854000	0,66	-0,106130	
18,865000	0,66	-0,104160	
18,876000	0,66	-0,111360	
18,887000	0,66	-0,091830	
18,898000	0,66	-0,102600	
18,909000	0,66	-0,102150	
18,920000	0,66	-0,113060	
18,931000	0,66	-0,115010	
18,942000	0,66	-0,098460	
18,953000	0,66	-0,097260	
18,964000	0,66	-0,099070	
18,975000	0,66	-0,101480	
18,986000	0,66	-0,105790	
18,997000	0,66	-0,113720	
19,008000	0,66	-0,120750	
19,019000	0,66	-0,124100	
19,030000	0,66	-0,112180	
19,041000	0,66	-0,110330	
19,052000	0,66	-0,109780	
19,063000	0,66	-0,103380	
19,074000	0,66	-0,099790	
19,085000	0,66	-0,099830	
19,096000	0,66	-0,088530	
19,107000	0,66	-0,089380	
19,118000	0,66	-0,099510	
19,129000	0,66	-0,110290	
19,140000	0,66	-0,111330	
19,151000	0,66	-0,105740	
19,162000	0,66	-0,101880	
19,173000	0,66	-0,096300	
19,184000	0,66	-0,093880	
19,195000	0,66	-0,099130	
19,206000	0,66	-0,117130	
19,217000	0,66	-0,140020	
19,228000	0,66	-0,143560	
19,239000	0,66	-0,136470	
19,250000	0,66	-0,127870	
19,261000	0,66	-0,115340	
19,272000	0,66	-0,115560	
19,283000	0,66	-0,113940	
19,294000	0,66	-0,115080	
19,305000	0,66	-0,118750	
19,316000	0,66	-0,116150	
19,327000	0,66	-0,106140	
19,338000	0,66	-0,109560	
19,349000	0,66	-0,102430	
19,360000	0,66	-0,107440	
19,371000	0,66	-0,114410	
19,382000	0,66	-0,106410	
19,393000	0,66	-0,112810	
19,404000	0,66	-0,112430	
19,415000	0,66	-0,124370	
19,426000	0,66	-0,124820	
19,437000	0,66	-0,134320	
19,448000	0,66	-0,131070	
19,459000	0,66	-0,120290	
19,470000	0,66	-0,134930	
19,481000	0,66	-0,132260	
19,492000	0,66	-0,107880	
19,503000	0,66	-0,096690	
19,514000	0,66	-0,102630	
19,525000	0,66	-0,102750	
19,536000	0,66	-0,091390	
19,547000	0,66	-0,088520	
19,558000	0,66	-0,085430	
19,569000	0,66	-0,094520	
19,580000	0,66	-0,110700	
19,591000	0,66	-0,104780	
19,602000	0,66	-0,105560	
19,613000	0,66	-0,099500	
19,624000	0,66	-0,105830	
19,635000	0,66	-0,099850	
19,646000	0,66	-0,099560	
19,657000	0,66	-0,099750	
19,668000	0,66	-0,104060	
19,679000	0,66	-0,095820	
19,690000	0,66	-0,089620	
19,701000	0,66	-0,102750	
19,712000	0,66	-0,094540	
19,723000	0,66	-0,093280	
19,734000	0,66	-0,099330	
19,745000	0,66	-0,107500	
19,756000	0,66	-0,108550	
19,767000	0,66	-0,113670	
19,778000	0,66	-0,106830	
19,789000	0,66	-0,099330	
19,800000	0,66	-0,102550	
19,811000	0,66	-0,114390	
19,822000	0,66	-0,105080	
19,833000	0,66	-0,099870	
19,844000	0,66	-0,103410	
19,855000	0,66	-0,097990	
19,866000	0,66	-0,087140	
19,877000	0,66	-0,085690	
19,888000	0,66	-0,101090	
19,899000	0,66	-0,114320	
19,910000	0,66	-0,115280	
19,921000	0,66	-0,104970	
19,932000	0,66	-0,105790	
19,943000	0,66	-0,116310	
19,954000	0,66	-0,110190	
19,965000	0,66	-0,104110	
19,976000	0,66	-0,092690	
19,987000	0,66	-0,091590	
19,998000	0,66	-0,100360	
20,009000	0,66	-0,104750	
20,020000	0,66	-0,110460	
20,031000	0,66	-0,112130	
20,042000	0,66	-0,103000	
20,053000	0,66	-0,103290	
20,064000	0,66	-0,118730	
20,075000	0,66	-0,104770	
20,086000	0,66	-0,107030	
20,097000	0,66	-0,120520	
20,108000	0,66	-0,137150	
20,119000	0,66	-0,129800	
20,130000	0,66	-0,131640	
20,141000	0,66	-0,128690	
20,152000	0,66	-0,128670	
20,163000	0,66	-0,137780	
20,174000	0,66	-0,136620	
20,185000	0,66	-0,119500	
20,196000	0,66	-0,111740	
20,207000	0,66	-0,111160	
20,218000	0,66	-0,110330	
20,229000	0,66	-0,096560	
20,240000	0,66	-0,107600	
20,251000	0,66	-0,114150	
20,262000	0,66	-0,125860	
20,273000	0,66	-0,128030	
20,284000	0,66	-0,106390	
20,295000	0,66	-0,092300	
20,306000	0,66	-0,076560	
20,317000	0,66	-0,078830	
20,328000	0,66	-0,089700	
20,339000	0,66	-0,093150	
20,350000	0,66	-0,092410	
20,361000	0,66	-0,103890	
20,372000	0,66	-0,111550	
20,383000	0,66	-0,104540	
20,394000	0,66	-0,105980	
20,405000	0,66	-0,098500	
20,416000	0,66	-0,109480	
20,427000	0,66	-0,106560	
20,438000	0,66	-0,114690	
20,449000	0,66	-0,119910	
20,460000	0,66	-0,103600	
20,471000	0,66	-0,109170	
20,482000	0,66	-0,105370	
20,493000	0,66	-0,098580	
20,504000	0,66	-0,085410	
20,515000	0,66	-0,089340	
20,526000	0,66	-0,094850	
20,537000	0,66	-0,085910	
20,548000	0,66	-0,077480	
20,559000	0,66	-0,088910	
20,570000	0,66	-0,111240	
20,581000	0,66	-0,117170	
20,592000	0,66	-0,128240	
20,603000	0,66	-0,143090	
20,614000	0,66	-0,143920	
20,625000	0,66	-0,138570	
20,636000	0,66	-0,124860	
20,647000	0,66	-0,125800	
20,658000	0,66	-0,130100	
20,669000	0,66	-0,112950	
20,680000	0,66	-0,104060	
20,691000	0,66	-0,110090	
20,702000	0,66	-0,123710	
20,713000	0,66	-0,123480	
20,724000	0,66	-0,126040	
20,735000	0,66	-0,139410	
20,746000	0,66	-0,147510	
20,757000	0,66	-0,139960	
20,768000	0,66	-0,141850	
20,779000	0,66	-0,123840	
20,790000	0,66	-0,114730	
20,801000	0,66	-0,116320	
20,812000	0,66	-0,126770	
20,823000	0,66	-0,125540	
20,834000	0,66	-0,118390	
20,845000	0,66	-0,128750	
20,856000	0,66	-0,130250	
20,867000	0,66	-0,132480	
20,878000	0,66	-0,135030	
20,889000	0,66	-0,126140	
20,900000	0,66	-0,114010	
20,911000	0,66	-0,116720	
20,922000	0,66	-0,109300	
20,933000	0,66	-0,118160	
20,944000	0,66	-0,110240	
20,955000	0,66	-0,102280	
20,966000	0,66	-0,101530	
20,977000	0,66	-0,107590	
20,988000	0,66	-0,110530	
20,999000	0,66	-0,094890	
21,010000	0,66	-0,106940	
21,021000	0,66	-0,126010	
21,032000	0,66	-0,125370	
21,043000	0,66	-0,121580	
21,054000	0,66	-0,114920	
21,065000	0,66	-0,110100	
21,076000	0,66	-0,109940	
21,087000	0,66	-0,093840	
21,098000	0,66	-0,088040	
21,109000	0,66	-0,087000	
21,120000	0,66	-0,089830	
21,131000	0,66	-0,085010	
21,142000	0,66	-0,075030	
21,153000	0,66	-0,080930	
21,164000	0,66	-0,080690	
21,175000	0,66	-0,079160	
21,186000	0,66	-0,084490	
21,197000	0,66	-0,089950	
21,208000	0,66	-0,081200	
21,219000	0,66	-0,083440	
21,230000	0,66	-0,089750	
21,241000	0,66	-0,093250	
21,252000	0,66	-0,104820	
21,263000	0,66	-0,118300	
21,274000	0,66	-0,129200	
21,285000	0,66	-0,132060	
21,296000	0,66	-0,127790	
21,307000	0,66	-0,119850	
21,318000	0,66	-0,113650	
21,329000	0,66	-0,117990	
21,340000	0,66	-0,125410	
21,351000	0,66	-0,122430	
21,362000	0,66	-0,106460	
21,373000	0,66	-0,095210	
21,384000	0,66	-0,095740	
21,395000	0,66	-0,108070	
21,406000	0,66	-0,118320	
21,417000	0,66	-0,111960	
21,428000	0,66	-0,105270	
21,439000	0,66	-0,098260	
21,450000	0,66	-0,097430	
21,461000	0,66	-0,094040	
21,472000	0,66	-0,096060	
21,483000	0,66	-0,089730	
21,494000	0,66	-0,102660	
21,505000	0,66	-0,101140	
21,516000	0,66	-0,088440	
21,527000	0,66	-0,091140	
21,538000	0,66	-0,088580	
21,549000	0,66	-0,092500	
21,560000	0,66	-0,084300	
21,571000	0,66	-0,082220	
21,582000	0,66	-0,092280	
21,593000	0,66	-0,084770	
21,604000	0,66	-0,095450	
21,615000	0,66	-0,091630	
21,626000	0,66	-0,104220	
21,637000	0,66	-0,106830	
21,648000	0,66	-0,103430	
21,659000	0,66	-0,118440	
21,670000	0,66	-0,112830	
21,681000	0,66	-0,112850	
21,692000	0,66	-0,111130	
21,703000	0,66	-0,110860	
21,714000	0,66	-0,106660	
21,725000	0,66	-0,108630	
21,736000	0,66	-0,118070	
21,747000	0,66	-0,129270	
21,758000	0,66	-0,130600	
21,769000	0,66	-0,126470	
21,780000	0,66	-0,119380	
21,791000	0,66	-0,116400	
21,802000	0,66	-0,128420	
21,813000	0,66	-0,130440	
21,824000	0,66	-0,122730	
21,835000	0,66	-0,129200	
21,846000	0,66	-0,134770	
21,857000	0,66	-0,126260	
21,868000	0,66	-0,129790	
21,879000	0,66	-0,129990	
21,890000	0,66	-0,129690	
21,901000	0,66	-0,121420	
21,912000	0,66	-0,117140	
21,923000	0,66	-0,123370	
21,934000	0,66	-0,123470	
21,945000	0,66	-0,110720	
21,956000	0,66	-0,094670	
21,967000	0,66	-0,091580	
21,978000	0,66	-0,089600	
21,989000	0,66	-0,095920	
22,000000	0,66	-0,117780	
22,011000	0,66	-0,123600	
22,022000	0,66	-0,132780	
22,033000	0,66	-0,145890	
22,044000	0,66	-0,144410	
22,055000	0,66	-0,149470	
22,066000	0,66	-0,136290	
22,077000	0,66	-0,126020	
22,088000	0,66	-0,125090	
22,099000	0,66	-0,120700	
22,110000	0,66	-0,126970	
22,121000	0,66	-0,125000	
22,132000	0,66	-0,117350	
22,143000	0,66	-0,116090	
22,154000	0,66	-0,118910	
22,165000	0,66	-0,129290	
22,176000	0,66	-0,124900	
22,187000	0,66	-0,118250	
22,198000	0,66	-0,133270	
22,209000	0,66	-0,144820	
22,220000	0,66	-0,133900	
22,231000	0,66	-0,115090	
22,242000	0,66	-0,131690	
22,253000	0,66	-0,127780	
22,264000	0,66	-0,120610	
22,275000	0,66	-0,123800	
22,286000	0,66	-0,128170	
22,297000	0,66	-0,131120	
22,308000	0,66	-0,114640	
22,319000	0,66	-0,092200	
22,330000	0,66	-0,095730	
22,341000	0,66	-0,104390	
22,352000	0,66	-0,126550	
22,363000	0,66	-0,133570	
22,374000	0,66	-0,129640	
22,385000	0,66	-0,128290	
22,396000	0,66	-0,113400	
22,407000	0,66	-0,113110	
22,418000	0,66	-0,114170	
22,429000	0,66	-0,098250	
22,440000	0,66	-0,093810	
22,451000	0,66	-0,097790	
22,462000	0,66	-0,111540	
22,473000	0,66	-0,107610	
22,484000	0,66	-0,103140	
22,495000	0,66	-0,104570	
22,506000	0,66	-0,119890	
22,517000	0,66	-0,134170	
22,528000	0,66	-0,120490	
22,539000	0,66	-0,110320	
22,550000	0,66	-0,109420	
22,561000	0,66	-0,118330	
22,572000	0,66	-0,114500	
22,583000	0,66	-0,120480	
22,594000	0,66	-0,114060	
22,605000	0,66	-0,105120	
22,616000	0,66	-0,096500	
22,627000	0,66	-0,115510	
22,638000	0,66	-0,129570	
22,649000	0,66	-0,119940	
22,660000	0,66	-0,101660	
22,671000	0,66	-0,087840	
22,682000	0,66	-0,073290	
22,693000	0,66	-0,046790	
22,704000	0,66	-0,010540	
22,715000	0,66	0,054610	
22,726000	0,66	0,132280	
22,737000	0,66	0,199900	
22,748000	0,66	0,273190	
22,759000	0,66	0,356460	
22,770000	0,66	0,443780	
22,781000	0,66	0,522520	
22,792000	0,66	0,595030	
22,803000	0,66	0,649660	
22,814000	0,66	0,672360	
22,825000	0,66	0,673790	
22,836000	0,66	0,646300	
22,847000	0,66	0,619750	
22,858000	0,66	0,564290	
22,869000	0,66	0,479060	
22,880000	0,66	0,402620	
22,891000	0,66	0,329880	
22,902000	0,66	0,252890	
22,913000	0,66	0,195950	
22,924000	0,66	0,142450	
22,935000	0,66	0,091240	
22,946000	0,66	0,064740	
22,957000	0,66	0,053360	
22,968000	0,66	0,026840	
22,979000	0,66	0,006320	
22,990000	0,66	-0,009510	
23,001000	0,66	-0,011070	
23,012000	0,66	-0,025060	
23,023000	0,66	-0,038530	
23,034000	0,66	-0,056910	
23,045000	0,66	-0,075160	
23,056000	0,66	-0,076960	
23,067000	0,66	-0,100910	
23,078000	0,66	-0,097780	
23,089000	0,66	-0,080760	
23,100000	0,66	-0,081500	
23,111000	0,66	-0,102290	
23,122000	0,66	-0,111230	
23,133000	0,66	-0,100550	
23,144000	0,66	-0,110560	
23,155000	0,66	-0,092190	
23,166000	0,66	-0,088190	
23,177000	0,66	-0,094270	
23,188000	0,66	-0,094220	
23,199000	0,66	-0,101880	
23,210000	0,66	-0,111570	
23,221000	0,66	-0,117040	
23,232000	0,66	-0,102190	
23,243000	0,66	-0,093200	
23,254000	0,66	-0,103220	
23,265000	0,66	-0,102010	
23,276000	0,66	-0,089320	
23,287000	0,66	-0,087180	
23,298000	0,66	-0,093610	
23,309000	0,66	-0,101600	
23,320000	0,66	-0,101810	
23,331000	0,66	-0,103040	
23,342000	0,66	-0,086350	
23,353000	0,66	-0,072520	
23,364000	0,66	-0,077390	
23,375000	0,66	-0,086360	
23,386000	0,66	-0,088040	
23,397000	0,66	-0,083410	
23,408000	0,66	-0,082460	
23,419000	0,66	-0,078670	
23,430000	0,66	-0,080020	
23,441000	0,66	-0,085400	
23,452000	0,66	-0,089820	
23,463000	0,66	-0,082150	
23,474000	0,66	-0,077390	
23,485000	0,66	-0,069130	
23,496000	0,66	-0,055820	
23,507000	0,66	-0,044010	
23,518000	0,66	-0,047930	
23,529000	0,66	-0,055330	
23,540000	0,66	-0,067420	
23,551000	0,66	-0,075080	
23,562000	0,66	-0,063660	
23,573000	0,66	-0,043170	
23,584000	0,66	-0,036710	
23,595000	0,66	-0,056850	
23,606000	0,66	-0,077270	
23,617000	0,66	-0,075820	
23,628000	0,66	-0,066270	
23,639000	0,66	-0,060510	
23,650000	0,66	-0,032540	
23,661000	0,66	-0,020710	
23,672000	0,66	-0,008360	
23,683000	0,66	0,004080	
23,694000	0,66	0,018260	
23,705000	0,66	0,014640	
23,716000	0,66	0,028100	
23,727000	0,66	0,036080	
23,738000	0,66	0,071930	
23,749000	0,66	0,103970	
23,760000	0,66	0,136200	
23,771000	0,66	0,155060	
23,782000	0,66	0,177740	
23,793000	0,66	0,203890	
23,804000	0,66	0,234100	
23,815000	0,66	0,266360	
23,826000	0,66	0,307740	
23,837000	0,66	0,369450	
23,848000	0,66	0,454880	
23,859000	0,66	0,547780	
23,870000	0,66	0,655980	
23,881000	0,66	0,752580	
23,892000	0,66	0,857000	
23,903000	0,66	0,990790	
23,914000	0,66	1,090080	
23,925000	0,66	1,148830	
23,936000	0,66	1,190110	
23,947000	0,66	1,196900	
23,958000	0,66	1,175820	
23,969000	0,66	1,149870	
23,980000	0,66	1,115560	
23,991000	0,66	1,068390	
24,002000	0,66	1,010070	
24,013000	0,66	0,970540	
24,024000	0,66	0,932350	
24,035000	0,66	0,894410	
24,046000	0,66	0,900660	
24,057000	0,66	0,978140	
24,068000	0,66	1,181260	
24,079000	0,66	1,650680	
24,090000	0,66	2,590320	
24,101000	0,66	4,325420	
24,112000	0,66	7,275540	
24,123000	0,66	12,292410	
24,134000	0,66	20,497820	
24,145000	0,66	32,316520	
24,156000	0,66	46,265440	
24,167000	0,66	60,192310	
24,178000	0,66	72,304400	
24,189000	0,66	81,713670	
24,200000	0,66	88,247430	
24,211000	0,66	92,174250	
24,222000	0,66	93,924460	
24,233000	0,66	93,886470	
24,244000	0,66	92,490850	
24,255000	0,66	90,073790	
24,266000	0,66	86,895070	
24,277000	0,66	83,150460	
24,288000	0,66	79,040250	
24,299000	0,66	74,667070	
24,310000	0,66	70,127540	
24,321000	0,66	65,522270	
24,332000	0,66	60,903660	
24,343000	0,66	56,313810	
24,354000	0,66	51,836530	
24,365000	0,66	47,485080	
24,376000	0,66	43,271140	
24,387000	0,66	39,282940	
24,398000	0,66	35,523140	
24,409000	0,66	32,012350	
24,420000	0,66	28,761300	
24,431000	0,66	25,809500	
24,442000	0,66	23,151810	
24,453000	0,66	20,784340	
24,464000	0,66	18,689950	
24,475000	0,66	16,837060	
24,486000	0,66	15,217850	
24,497000	0,66	13,768030	
24,508000	0,66	12,470660	
24,519000	0,66	11,278500	
24,530000	0,66	10,216090	
24,541000	0,66	9,242230	
24,552000	0,66	8,327720	
24,563000	0,66	7,456760	
24,574000	0,66	6,648970	
24,585000	0,66	5,911560	
24,596000	0,66	5,246960	
24,607000	0,66	4,637430	
24,618000	0,66	4,102870	
24,629000	0,66	3,631550	
24,640000	0,66	3,205170	
24,651000	0,66	2,829710	
24,662000	0,66	2,530670	
24,673000	0,66	2,282620	
24,684000	0,66	2,052160	
24,695000	0,66	1,840760	
24,706000	0,66	1,644840	
24,717000	0,66	1,497210	
24,728000	0,66	1,380940	
24,739000	0,66	1,268590	
24,750000	0,66	1,169890	
24,761000	0,66	1,094480	
24,772000	0,66	1,031720	
24,783000	0,66	0,968090	
24,794000	0,66	0,895720	
24,805000	0,66	0,813550	
24,816000	0,66	0,751860	
24,827000	0,66	0,701880	
24,838000	0,66	0,647290	
24,849000	0,66	0,600040	
24,860000	0,66	0,543100	
24,871000	0,66	0,483500	
24,882000	0,66	0,432020	
24,893000	0,66	0,413530	
24,904000	0,66	0,393680	
24,915000	0,66	0,364790	
24,926000	0,66	0,346250	
24,937000	0,66	0,341700	
24,948000	0,66	0,335480	
24,959000	0,66	0,308840	
24,970000	0,66	0,303250	
24,981000	0,66	0,284290	
24,992000	0,66	0,267480	
25,003000	0,66	0,272170	
25,014000	0,66	0,264430	
25,025000	0,66	0,243220	
25,036000	0,66	0,241850	
25,047000	0,66	0,239780	
25,058000	0,66	0,230980	
25,069000	0,66	0,228400	
25,080000	0,66	0,208300	
25,091000	0,66	0,204610	
25,102000	0,66	0,207040	
25,113000	0,66	0,219220	
25,124000	0,66	0,212150	
25,135000	0,66	0,192530	
25,146000	0,66	0,171790	
25,157000	0,66	0,149920	
25,168000	0,66	0,153670	
25,179000	0,66	0,162030	
25,190000	0,66	0,156770	
25,201000	0,66	0,142140	
25,212000	0,66	0,159070	
25,223000	0,66	0,139730	
25,234000	0,66	0,148480	
25,245000	0,66	0,162210	
25,256000	0,66	0,176140	
25,267000	0,66	0,186240	
25,278000	0,66	0,217940	
25,289000	0,66	0,227600	
25,300000	0,66	0,239730	
25,311000	0,66	0,248460	
25,322000	0,66	0,246420	
25,333000	0,66	0,248160	
25,344000	0,66	0,234750	
25,355000	0,66	0,211770	
25,366000	0,66	0,206270	
25,377000	0,66	0,194820	
25,388000	0,66	0,162320	
25,399000	0,66	0,138130	
25,410000	0,66	0,138650	
25,421000	0,66	0,136100	
25,432000	0,66	0,095770	
25,443000	0,66	0,056800	
25,454000	0,66	0,053990	
25,465000	0,66	0,051060	
25,476000	0,66	0,038030	
25,487000	0,66	0,026840	
25,498000	0,66	0,018760	
25,509000	0,66	0,016720	
25,520000	0,66	0,012600	
25,531000	0,66	0,002900	
25,542000	0,66	-0,001920	
25,553000	0,66	0,005770	
25,564000	0,66	0,011390	
25,575000	0,66	0,018360	
25,586000	0,66	-0,002820	
25,597000	0,66	-0,013590	
25,608000	0,66	-0,012380	
25,619000	0,66	0,012950	
25,630000	0,66	0,027490	
25,641000	0,66	0,012000	
25,652000	0,66	0,000250	
25,663000	0,66	0,020710	
25,674000	0,66	0,024450	
25,685000	0,66	0,007760	
25,696000	0,66	0,006360	
25,707000	0,66	0,017250	
25,718000	0,66	0,019080	
25,729000	0,66	0,017420	
25,740000	0,66	0,047730	
25,751000	0,66	0,055970	
25,762000	0,66	0,049440	
25,773000	0,66	0,048010	
25,784000	0,66	0,043500	
25,795000	0,66	0,037550	
25,806000	0,66	0,041850	
25,817000	0,66	0,030800	
25,828000	0,66	0,012170	
25,839000	0,66	-0,002460	
25,850000	0,66	0,006460	
25,861000	0,66	0,008710	
25,872000	0,66	0,000790	
25,883000	0,66	-0,014050	
25,894000	0,66	-0,035990	
25,905000	0,66	-0,050560	
25,916000	0,66	-0,041500	
25,927000	0,66	-0,046790	
25,938000	0,66	-0,059890	
25,949000	0,66	-0,049330	
25,960000	0,66	-0,048520	
25,971000	0,66	-0,047920	
25,982000	0,66	-0,068100	
25,993000	0,66	-0,066040	
26,004000	0,66	-0,072840	
26,015000	0,66	-0,077500	
26,026000	0,66	-0,067370	
26,037000	0,66	-0,064010	
26,048000	0,66	-0,070950	
26,059000	0,66	-0,063770	
26,070000	0,66	-0,053980	
26,081000	0,66	-0,056820	
26,092000	0,66	-0,066900	
26,103000	0,66	-0,069900	
26,114000	0,66	-0,068360	
26,125000	0,66	-0,064250	
26,136000	0,66	-0,049570	
26,147000	0,66	-0,034440	
26,158000	0,66	-0,039180	
26,169000	0,66	-0,046040	
26,180000	0,66	-0,048200	
26,191000	0,66	-0,040630	
26,202000	0,66	-0,034220	
26,213000	0,66	-0,052070	
26,224000	0,66	-0,064070	
26,235000	0,66	-0,066320	
26,246000	0,66	-0,051380	
26,257000	0,66	-0,033230	
26,268000	0,66	-0,038970	
26,279000	0,66	-0,052860	
26,290000	0,66	-0,057110	
26,301000	0,66	-0,073900	
26,312000	0,66	-0,077970	
26,323000	0,66	-0,073100	
26,334000	0,66	-0,083110	
26,345000	0,66	-0,079100	
26,356000	0,66	-0,063910	
26,367000	0,66	-0,053710	
26,378000	0,66	-0,070810	
26,389000	0,66	-0,076970	
26,400000	0,66	-0,082990	
26,411000	0,66	-0,081130	
26,422000	0,66	-0,070340	
26,433000	0,66	-0,060090	
26,444000	0,66	-0,064410	
26,455000	0,66	-0,071880	
26,466000	0,66	-0,064750	
26,477000	0,66	-0,054780	
26,488000	0,66	-0,044590	
26,499000	0,66	-0,045650	
26,510000	0,66	-0,054650	
26,521000	0,66	-0,054340	
26,532000	0,66	-0,061080	
26,543000	0,66	-0,063830	
26,554000	0,66	-0,045510	
26,565000	0,66	-0,043530	
26,576000	0,66	-0,040140	
26,587000	0,66	-0,053680	
26,598000	0,66	-0,066940	
26,609000	0,66	-0,075740	
26,620000	0,66	-0,082400	
26,631000	0,66	-0,080750	
26,642000	0,66	-0,085320	
26,653000	0,66	-0,082080	
26,664000	0,66	-0,078940	
26,675000	0,66	-0,071570	
26,686000	0,66	-0,075080	
26,697000	0,66	-0,078740	
26,708000	0,66	-0,084360	
26,719000	0,66	-0,088510	
26,730000	0,66	-0,088270	
26,741000	0,66	-0,079880	
26,752000	0,66	-0,066880	
26,763000	0,66	-0,070380	
26,774000	0,66	-0,072870	
26,785000	0,66	-0,071090	
26,796000	0,66	-0,076250	
26,807000	0,66	-0,077800	
26,818000	0,66	-0,081410	
26,829000	0,66	-0,080090	
26,840000	0,66	-0,076690	
26,851000	0,66	-0,080210	
26,862000	0,66	-0,086050	
26,873000	0,66	-0,103020	
26,884000	0,66	-0,108930	
26,895000	0,66	-0,096340	
26,906000	0,66	-0,092920	
26,917000	0,66	-0,098950	
26,928000	0,66	-0,103020	
26,939000	0,66	-0,098050	
26,950000	0,66	-0,095240	
26,961000	0,66	-0,081650	
26,972000	0,66	-0,088050	
26,983000	0,66	-0,080700	
26,994000	0,66	-0,079440	
27,005000	0,66	-0,081490	
27,016000	0,66	-0,068870	
27,027000	0,66	-0,083110	
27,038000	0,66	-0,095920	
27,049000	0,66	-0,089100	
27,060000	0,66	-0,070200	
27,071000	0,66	-0,079930	
27,082000	0,66	-0,086290	
27,093000	0,66	-0,100220	
27,104000	0,66	-0,107280	
27,115000	0,66	-0,099660	
27,126000	0,66	-0,096160	
27,137000	0,66	-0,093480	
27,148000	0,66	-0,106140	
27,159000	0,66	-0,117320	
27,170000	0,66	-0,113020	
27,181000	0,66	-0,130920	
27,192000	0,66	-0,146400	
27,203000	0,66	-0,135180	
27,214000	0,66	-0,114150	
27,225000	0,66	-0,123440	
27,236000	0,66	-0,123510	
27,247000	0,66	-0,127210	
27,258000	0,66	-0,131690	
27,269000	0,66	-0,137810	
27,280000	0,66	-0,120230	
27,291000	0,66	-0,123210	
27,302000	0,66	-0,129150	
27,313000	0,66	-0,126230	
27,324000	0,66	-0,105630	
27,335000	0,66	-0,107640	
27,346000	0,66	-0,106400	
27,357000	0,66	-0,112080	
27,368000	0,66	-0,111640	
27,379000	0,66	-0,101790	
27,390000	0,66	-0,099180	
27,401000	0,66	-0,095340	
27,412000	0,66	-0,093190	
27,423000	0,66	-0,090240	
27,434000	0,66	-0,093260	
27,445000	0,66	-0,100180	
27,456000	0,66	-0,109810	
27,467000	0,66	-0,111130	
27,478000	0,66	-0,115740	
27,489000	0,66	-0,118830	
27,500000	0,66	-0,116290	
27,511000	0,66	-0,106650	
27,522000	0,66	-0,102390	
27,533000	0,66	-0,105370	
27,544000	0,66	-0,115200	
27,555000	0,66	-0,121960	
27,566000	0,66	-0,115060	
27,577000	0,66	-0,108730	
27,588000	0,66	-0,111600	
27,599000	0,66	-0,121110	
27,610000	0,66	-0,127180	
27,621000	0,66	-0,122430	
27,632000	0,66	-0,106850	
27,643000	0,66	-0,094030	
27,654000	0,66	-0,099910	
27,665000	0,66	-0,104020	
27,676000	0,66	-0,103450	
27,687000	0,66	-0,117920	
27,698000	0,66	-0,125250	
27,709000	0,66	-0,113820	
27,720000	0,66	-0,108480	
27,731000	0,66	-0,116210	
27,742000	0,66	-0,109100	
27,753000	0,66	-0,085070	
27,764000	0,66	-0,059630	
27,775000	0,66	-0,063900	
27,786000	0,66	-0,089230	
27,797000	0,66	-0,087950	
27,808000	0,66	-0,093080	
27,819000	0,66	-0,117580	
27,830000	0,66	-0,124750	
27,841000	0,66	-0,118750	
27,852000	0,66	-0,112240	
27,863000	0,66	-0,130780	
27,874000	0,66	-0,123420	
27,885000	0,66	-0,112890	
27,896000	0,66	-0,114620	
27,907000	0,66	-0,120700	
27,918000	0,66	-0,134450	
27,929000	0,66	-0,141730	
27,940000	0,66	-0,133600	
27,951000	0,66	-0,105700	
27,962000	0,66	-0,112350	
27,973000	0,66	-0,117320	
27,984000	0,66	-0,123560	
27,995000	0,66	-0,128600	
28,006000	0,66	-0,126090	
28,017000	0,66	-0,130660	
28,028000	0,66	-0,125750	
28,039000	0,66	-0,100820	
28,050000	0,66	-0,105500	
28,061000	0,66	-0,123240	
28,072000	0,66	-0,125610	
28,083000	0,66	-0,118820	
28,094000	0,66	-0,113520	
28,105000	0,66	-0,132060	
28,116000	0,66	-0,126670	
28,127000	0,66	-0,107680	
28,138000	0,66	-0,091310	
28,149000	0,66	-0,096930	
28,160000	0,66	-0,098880	
28,171000	0,66	-0,092930	
28,182000	0,66	-0,082270	
28,193000	0,66	-0,081830	
28,204000	0,66	-0,081960	
28,215000	0,66	-0,081470	
28,226000	0,66	-0,102370	
28,237000	0,66	-0,124360	
28,248000	0,66	-0,120830	
28,259000	0,66	-0,108960	
28,270000	0,66	-0,098060	
28,281000	0,66	-0,089080	
28,292000	0,66	-0,097090	
28,303000	0,66	-0,107110	
28,314000	0,66	-0,105690	
28,325000	0,66	-0,105070	
28,336000	0,66	-0,102590	
28,347000	0,66	-0,098910	
28,358000	0,66	-0,103080	
28,369000	0,66	-0,094700	
28,380000	0,66	-0,083890	
28,391000	0,66	-0,099870	
28,402000	0,66	-0,113930	
28,413000	0,66	-0,101210	
28,424000	0,66	-0,082350	
28,435000	0,66	-0,060360	
28,446000	0,66	-0,054130	
28,457000	0,66	-0,042530	
28,468000	0,66	-0,032380	
28,479000	0,66	-0,016950	
28,490000	0,66	0,004010	
28,501000	0,66	0,020730	
28,512000	0,66	0,041610	
28,523000	0,66	0,046600	
28,534000	0,66	0,048140	
28,545000	0,66	0,066590	
28,556000	0,66	0,091960	
28,567000	0,66	0,102580	
28,578000	0,66	0,099070	
28,589000	0,66	0,096140	
28,600000	0,66	0,083960	
28,611000	0,66	0,089790	
28,622000	0,66	0,075280	
28,633000	0,66	0,046360	
28,644000	0,66	0,037810	
28,655000	0,66	0,044010	
28,666000	0,66	0,039620	
28,677000	0,66	0,045250	
28,688000	0,66	0,062840	
28,699000	0,66	0,078100	
28,710000	0,66	0,090050	
28,721000	0,66	0,099600	
28,732000	0,66	0,120640	
28,743000	0,66	0,136070	
28,754000	0,66	0,148810	
28,765000	0,66	0,166100	
28,776000	0,66	0,154840	
28,787000	0,66	0,132860	
28,798000	0,66	0,114850	
28,809000	0,66	0,098500	
28,820000	0,66	0,103570	
28,831000	0,66	0,100180	
28,842000	0,66	0,067610	
28,853000	0,66	0,039270	
28,864000	0,66	0,031350	
28,875000	0,66	0,019530	
28,886000	0,66	0,017090	
28,897000	0,66	0,008270	
28,908000	0,66	-0,013680	
28,919000	0,66	-0,036950	
28,930000	0,66	-0,044440	
28,941000	0,66	-0,052880	
28,952000	0,66	-0,066610	
28,963000	0,66	-0,076340	
28,974000	0,66	-0,084540	
28,985000	0,66	-0,080650	
28,996000	0,66	-0,070350	
29,007000	0,66	-0,069820	
29,018000	0,66	-0,080820	
29,029000	0,66	-0,085310	
29,040000	0,66	-0,079660	
29,051000	0,66	-0,078440	
29,062000	0,66	-0,083580	
29,073000	0,66	-0,080980	
29,084000	0,66	-0,086840	
29,095000	0,66	-0,090650	
29,106000	0,66	-0,103460	
29,117000	0,66	-0,099290	
29,128000	0,66	-0,093940	
29,139000	0,66	-0,078770	
29,150000	0,66	-0,075030	
29,161000	0,66	-0,085510	
29,172000	0,66	-0,095630	
29,183000	0,66	-0,089010	
29,194000	0,66	-0,082240	
29,205000	0,66	-0,076090	
29,216000	0,66	-0,083650	
29,227000	0,66	-0,095270	
29,238000	0,66	-0,106820	
29,249000	0,66	-0,105260	
29,260000	0,66	-0,088880	
29,271000	0,66	-0,068350	
29,282000	0,66	-0,063510	
29,293000	0,66	-0,055040	
29,304000	0,66	-0,054810	
29,315000	0,66	-0,049540	
29,326000	0,66	-0,030400	
29,337000	0,66	-0,026110	
29,348000	0,66	-0,030530	
29,359000	0,66	-0,041020	
29,370000	0,66	-0,030280	
29,381000	0,66	-0,020920	
29,392000	0,66	-0,022580	
29,403000	0,66	-0,023600	
29,414000	0,66	-0,015150	
29,425000	0,66	-0,024520	
29,436000	0,66	-0,044030	
29,447000	0,66	-0,061440	
29,458000	0,66	-0,079250	
29,469000	0,66	-0,088940	
29,480000	0,66	-0,103350	
29,491000	0,66	-0,111900	
29,502000	0,66	-0,115190	
29,513000	0,66	-0,100710	
29,524000	0,66	-0,086660	
29,535000	0,66	-0,092300	
29,546000	0,66	-0,109910	
29,557000	0,66	-0,125540	
29,568000	0,66	-0,124630	
29,579000	0,66	-0,119440	
29,590000	0,66	-0,124430	
29,601000	0,66	-0,121670	
29,612000	0,66	-0,131650	
29,623000	0,66	-0,148460	
29,634000	0,66	-0,159020	
29,645000	0,66	-0,168600	
29,656000	0,66	-0,172340	
29,667000	0,66	-0,160080	
29,678000	0,66	-0,136050	
29,689000	0,66	-0,128970	
29,700000	0,66	-0,129810	
29,711000	0,66	-0,116470	
29,722000	0,66	-0,101260	
29,733000	0,66	-0,113620	
29,744000	0,66	-0,126590	
29,755000	0,66	-0,115680	
29,766000	0,66	-0,125000	
29,777000	0,66	-0,143730	
29,788000	0,66	-0,144200	
29,799000	0,66	-0,138240	
29,810000	0,66	-0,128280	
29,821000	0,66	-0,123480	
29,832000	0,66	-0,132160	
29,843000	0,66	-0,127520	
29,854000	0,66	-0,121970	
29,865000	0,66	-0,122660	
29,876000	0,66	-0,141760	
29,887000	0,66	-0,146350	
29,898000	0,66	-0,130810	
29,909000	0,66	-0,132570	
29,920000	0,66	-0,126340	
29,931000	0,66	-0,124700	
29,942000	0,66	-0,127380	
29,953000	0,66	-0,131510	
29,964000	0,66	-0,139520	
29,975000	0,66	-0,130420	
29,986000	0,66	-0,124090	
29,997000	0,66	-0,137480	
30,008000	0,66	-0,162620	
30,019000	0,66	-0,150260	
30,030000	0,66	-0,121180	
30,041000	0,66	-0,123520	
30,052000	0,66	-0,121510	
30,063000	0,66	-0,123130	
30,074000	0,66	-0,124000	
30,085000	0,66	-0,124960	
30,096000	0,66	-0,133080	
30,107000	0,66	-0,137050	
30,118000	0,66	-0,124040	
30,129000	0,66	-0,131070	
30,140000	0,66	-0,140970	
30,151000	0,66	-0,139960	
30,162000	0,66	-0,124500	
30,173000	0,66	-0,117800	
30,184000	0,66	-0,122550	
30,195000	0,66	-0,117140	
30,206000	0,66	-0,107960	
30,217000	0,66	-0,107820	
30,228000	0,66	-0,105810	
30,239000	0,66	-0,101130	
30,250000	0,66	-0,105580	
30,261000	0,66	-0,100230	
30,272000	0,66	-0,120480	
30,283000	0,66	-0,135860	
30,294000	0,66	-0,130820	
30,305000	0,66	-0,122490	
30,316000	0,66	-0,118660	
30,327000	0,66	-0,115560	
30,338000	0,66	-0,111900	
30,349000	0,66	-0,121580	
30,360000	0,66	-0,131220	
30,371000	0,66	-0,134520	
30,382000	0,66	-0,149710	
30,393000	0,66	-0,153860	
30,404000	0,66	-0,142240	
30,415000	0,66	-0,144480	
30,426000	0,66	-0,142740	
30,437000	0,66	-0,138490	
30,448000	0,66	-0,142300	
30,459000	0,66	-0,139730	
30,470000	0,66	-0,124400	
30,481000	0,66	-0,108510	
30,492000	0,66	-0,106170	
30,503000	0,66	-0,107040	
30,514000	0,66	-0,107200	
30,525000	0,66	-0,114200	
30,536000	0,66	-0,112140	
30,547000	0,66	-0,116100	
30,558000	0,66	-0,120910	
30,569000	0,66	-0,139940	
30,580000	0,66	-0,145640	
30,591000	0,66	-0,153320	
30,602000	0,66	-0,151340	
30,613000	0,66	-0,165180	
30,624000	0,66	-0,158880	
30,635000	0,66	-0,136580	
30,646000	0,66	-0,126000	
30,657000	0,66	-0,118990	
30,668000	0,66	-0,128510	
30,679000	0,66	-0,136180	
30,690000	0,66	-0,141720	
30,701000	0,66	-0,131500	
30,712000	0,66	-0,124990	
30,723000	0,66	-0,115710	
30,734000	0,66	-0,136160	
30,745000	0,66	-0,151570	
30,756000	0,66	-0,131110	
30,767000	0,66	-0,123530	
30,778000	0,66	-0,132810	
30,789000	0,66	-0,127200	
30,800000	0,66	-0,125740	
30,811000	0,66	-0,135380	
30,822000	0,66	-0,117550	
30,833000	0,66	-0,118800	
30,844000	0,66	-0,126190	
30,855000	0,66	-0,140510	
30,866000	0,66	-0,146470	
30,877000	0,66	-0,132200	
30,888000	0,66	-0,125490	
30,899000	0,66	-0,116810	
30,910000	0,66	-0,125130	
30,921000	0,66	-0,129520	
30,932000	0,66	-0,128650	
30,943000	0,66	-0,128940	
30,954000	0,66	-0,123320	
30,965000	0,66	-0,132640	
30,976000	0,66	-0,131990	
30,987000	0,66	-0,124310	
30,998000	0,66	-0,127820	
31,009000	0,66	-0,136290	
31,020000	0,66	-0,134900	
31,031000	0,66	-0,131280	
31,042000	0,66	-0,132390	
31,053000	0,66	-0,130060	
31,064000	0,66	-0,121480	
31,075000	0,66	-0,120580	
31,086000	0,66	-0,132780	
31,097000	0,66	-0,140810	
31,108000	0,66	-0,149150	
31,119000	0,66	-0,164580	
31,130000	0,66	-0,168800	
31,141000	0,66	-0,145640	
31,152000	0,66	-0,138790	
31,163000	0,66	-0,146320	
31,174000	0,66	-0,151640	
31,185000	0,66	-0,155790	
31,196000	0,66	-0,161070	
31,207000	0,66	-0,152400	
31,218000	0,66	-0,153490	
31,229000	0,66	-0,141230	
31,240000	0,66	-0,146390	
31,251000	0,66	-0,150710	
31,262000	0,66	-0,164070	
31,273000	0,66	-0,151780	
31,284000	0,66	-0,142120	
31,295000	0,66	-0,139680	
31,306000	0,66	-0,134540	
31,317000	0,66	-0,143340	
31,328000	0,66	-0,154390	
31,339000	0,66	-0,173650	
31,350000	0,66	-0,163430	
31,361000	0,66	-0,159970	
31,372000	0,66	-0,160320	
31,383000	0,66	-0,164910	
31,394000	0,66	-0,147760	
31,405000	0,66	-0,131670	
31,416000	0,66	-0,135510	
31,427000	0,66	-0,151760	
31,438000	0,66	-0,157650	
31,449000	0,66	-0,162050	
31,460000	0,66	-0,155630	
31,471000	0,66	-0,144420	
31,482000	0,66	-0,140720	
31,493000	0,66	-0,136410	
31,504000	0,66	-0,135860	
31,515000	0,66	-0,113400	
31,526000	0,66	-0,114410	
31,537000	0,66	-0,120650	
31,548000	0,66	-0,119230	
31,559000	0,66	-0,124840	
31,570000	0,66	-0,123020	
31,581000	0,66	-0,119070	
31,592000	0,66	-0,118160	
31,603000	0,66	-0,122590	
31,614000	0,66	-0,118760	
31,625000	0,66	-0,123380	
31,636000	0,66	-0,127620	
31,647000	0,66	-0,134080	
31,658000	0,66	-0,144320	
31,669000	0,66	-0,147280	
31,680000	0,66	-0,138040	
31,691000	0,66	-0,144960	
31,702000	0,66	-0,159490	
31,713000	0,66	-0,162970	
31,724000	0,66	-0,150620	
31,735000	0,66	-0,133400	
31,746000	0,66	-0,122600	
31,757000	0,66	-0,119220	
31,768000	0,66	-0,131800	
31,779000	0,66	-0,138300	
31,790000	0,66	-0,122380	
31,801000	0,66	-0,109580	
31,812000	0,66	-0,107000	
31,823000	0,66	-0,107250	
31,834000	0,66	-0,120200	
31,845000	0,66	-0,130460	
31,856000	0,66	-0,139810	
31,867000	0,66	-0,140110	
31,878000	0,66	-0,124480	
31,889000	0,66	-0,119730	
31,900000	0,66	-0,138160	
31,911000	0,66	-0,132010	
31,922000	0,66	-0,122720	
31,933000	0,66	-0,122790	
31,944000	0,66	-0,123500	
31,955000	0,66	-0,139730	
31,966000	0,66	-0,153420	
31,977000	0,66	-0,151860	
31,988000	0,66	-0,135850	
31,999000	0,66	-0,136590	
32,010000	0,66	-0,159770	
32,021000	0,66	-0,170080	
32,032000	0,66	-0,174870	
32,043000	0,66	-0,159140	
32,054000	0,66	-0,150270	
32,065000	0,66	-0,146230	
32,076000	0,66	-0,146990	
32,087000	0,66	-0,156300	
32,098000	0,66	-0,152580	
32,109000	0,66	-0,145260	
32,120000	0,66	-0,150210	
32,131000	0,66	-0,149700	
32,142000	0,66	-0,149440	
32,153000	0,66	-0,145330	
32,164000	0,66	-0,154550	
32,175000	0,66	-0,164630	
32,186000	0,66	-0,159490	
32,197000	0,66	-0,169620	
32,208000	0,66	-0,163350	
32,219000	0,66	-0,151990	
32,230000	0,66	-0,156530	
32,241000	0,66	-0,164610	
32,252000	0,66	-0,159060	
32,263000	0,66	-0,162680	
32,274000	0,66	-0,152230	
32,285000	0,66	-0,142030	
32,296000	0,66	-0,140960	
32,307000	0,66	-0,141570	
32,318000	0,66	-0,152870	
32,329000	0,66	-0,148640	
32,340000	0,66	-0,137730	
32,351000	0,66	-0,135160	
32,362000	0,66	-0,132140	
32,373000	0,66	-0,135520	
32,384000	0,66	-0,146770	
32,395000	0,66	-0,160060	
32,406000	0,66	-0,157950	
32,417000	0,66	-0,156510	
32,428000	0,66	-0,155830	
32,439000	0,66	-0,145990	
32,450000	0,66	-0,162380	
32,461000	0,66	-0,184170	
32,472000	0,66	-0,173090	
32,483000	0,66	-0,168360	
32,494000	0,66	-0,178960	
32,505000	0,66	-0,178410	
32,516000	0,66	-0,165960	
32,527000	0,66	-0,159760	
32,538000	0,66	-0,168880	
32,549000	0,66	-0,162350	
32,560000	0,66	-0,160760	
32,571000	0,66	-0,150040	
32,582000	0,66	-0,149030	
32,593000	0,66	-0,154210	
32,604000	0,66	-0,138080	
32,615000	0,66	-0,136220	
32,626000	0,66	-0,137290	
32,637000	0,66	-0,133640	
32,648000	0,66	-0,129090	
32,659000	0,66	-0,141030	
32,670000	0,66	-0,144930	
32,681000	0,66	-0,149940	
32,692000	0,66	-0,147380	
32,703000	0,66	-0,159670	
32,714000	0,66	-0,158380	
32,725000	0,66	-0,156050	
32,736000	0,66	-0,162820	
32,747000	0,66	-0,159850	
32,758000	0,66	-0,156670	
32,769000	0,66	-0,158090	
32,780000	0,66	-0,157200	
32,791000	0,66	-0,144550	
32,802000	0,66	-0,137490	
32,813000	0,66	-0,141190	
32,824000	0,66	-0,146300	
32,835000	0,66	-0,126530	
32,846000	0,66	-0,146890	
32,857000	0,66	-0,164520	
32,868000	0,66	-0,152640	
32,879000	0,66	-0,146500	
32,890000	0,66	-0,144380	
32,901000	0,66	-0,135540	
32,912000	0,66	-0,135930	
32,923000	0,66	-0,134550	
32,934000	0,66	-0,129030	
32,945000	0,66	-0,124680	
32,956000	0,66	-0,124750	
32,967000	0,66	-0,118890	
32,978000	0,66	-0,135520	
32,989000	0,66	-0,143300	
33,000000	0,66	-0,155610	
33,011000	0,66	-0,161740	
33,022000	0,66	-0,144650	
33,033000	0,66	-0,133980	
33,044000	0,66	-0,135730	
33,055000	0,66	-0,131670	
33,066000	0,66	-0,133610	
33,077000	0,66	-0,144400	
33,088000	0,66	-0,147200	
33,099000	0,66	-0,151360	
33,110000	0,66	-0,152930	
33,121000	0,66	-0,161010	
33,132000	0,66	-0,166770	
33,143000	0,66	-0,170840	
33,154000	0,66	-0,181860	
33,165000	0,66	-0,179850	
33,176000	0,66	-0,181500	
33,187000	0,66	-0,178120	
33,198000	0,66	-0,168980	
33,209000	0,66	-0,164590	
33,220000	0,66	-0,161690	
33,231000	0,66	-0,167010	
33,242000	0,66	-0,157960	
33,253000	0,66	-0,151750	
33,264000	0,66	-0,145020	
33,275000	0,66	-0,139800	
33,286000	0,66	-0,130340	
33,297000	0,66	-0,124940	
33,308000	0,66	-0,140610	
33,319000	0,66	-0,147240	
33,330000	0,66	-0,149470	
33,341000	0,66	-0,158990	
33,352000	0,66	-0,177820	
33,363000	0,66	-0,168080	
33,374000	0,66	-0,162390	
33,385000	0,66	-0,161210	
33,396000	0,66	-0,157130	
33,407000	0,66	-0,150210	
33,418000	0,66	-0,152480	
33,429000	0,66	-0,147630	
33,440000	0,66	-0,140100	
33,451000	0,66	-0,145450	
33,462000	0,66	-0,142370	
33,473000	0,66	-0,153860	
33,484000	0,66	-0,155430	
33,495000	0,66	-0,165780	
33,506000	0,66	-0,170860	
33,517000	0,66	-0,168790	
33,528000	0,66	-0,160630	
33,539000	0,66	-0,149040	
33,550000	0,66	-0,152150	
33,561000	0,66	-0,153130	
33,572000	0,66	-0,141500	
33,583000	0,66	-0,162230	
33,594000	0,66	-0,164780	
33,605000	0,66	-0,162840	
33,616000	0,66	-0,155990	
33,627000	0,66	-0,161480	
33,638000	0,66	-0,167130	
33,649000	0,66	-0,160220	
33,660000	0,66	-0,171600	
33,671000	0,66	-0,179450	
33,682000	0,66	-0,171350	
33,693000	0,66	-0,156450	
33,704000	0,66	-0,150280	
33,715000	0,66	-0,160420	
33,726000	0,66	-0,159520	
33,737000	0,66	-0,149870	
33,748000	0,66	-0,159800	
33,759000	0,66	-0,164850	
33,770000	0,66	-0,164680	
33,781000	0,66	-0,170170	
33,792000	0,66	-0,168750	
33,803000	0,66	-0,153300	
33,814000	0,66	-0,135200	
33,825000	0,66	-0,145690	
33,836000	0,66	-0,162120	
33,847000	0,66	-0,164510	
33,858000	0,66	-0,158560	
33,869000	0,66	-0,146630	
33,880000	0,66	-0,144090	
33,891000	0,66	-0,151330	
33,902000	0,66	-0,152800	
33,913000	0,66	-0,148280	
33,924000	0,66	-0,164150	
33,935000	0,66	-0,161100	
33,946000	0,66	-0,153800	
33,957000	0,66	-0,159280	
33,968000	0,66	-0,156860	
33,979000	0,66	-0,152750	
33,990000	0,66	-0,154850	
34,001000	0,66	-0,155720	
34,012000	0,66	-0,144990	
34,023000	0,66	-0,136910	
34,034000	0,66	-0,135260	
34,045000	0,66	-0,149550	
34,056000	0,66	-0,166550	
34,067000	0,66	-0,165030	
34,078000	0,66	-0,163520	
34,089000	0,66	-0,170100	
34,100000	0,66	-0,162240	
34,111000	0,66	-0,157590	
34,122000	0,66	-0,148840	
34,133000	0,66	-0,139180	
34,144000	0,66	-0,138730	
34,155000	0,66	-0,147940	
34,166000	0,66	-0,164360	
34,177000	0,66	-0,150730	
34,188000	0,66	-0,159750	
34,199000	0,66	-0,161180	
34,210000	0,66	-0,167170	
34,221000	0,66	-0,171050	
34,232000	0,66	-0,167510	
34,243000	0,66	-0,175480	
34,254000	0,66	-0,173040	
34,265000	0,66	-0,177670	
34,276000	0,66	-0,178710	
34,287000	0,66	-0,173830	
34,298000	0,66	-0,170210	
34,309000	0,66	-0,165760	
34,320000	0,66	-0,167530	
34,331000	0,66	-0,168360	
34,342000	0,66	-0,166210	
34,353000	0,66	-0,170180	
34,364000	0,66	-0,162400	
34,375000	0,66	-0,157740	
34,386000	0,66	-0,156650	
34,397000	0,66	-0,150900	
34,408000	0,66	-0,145480	
34,419000	0,66	-0,144040	
34,430000	0,66	-0,141970	
34,441000	0,66	-0,124680	
34,452000	0,66	-0,129780	
34,463000	0,66	-0,140710	
34,474000	0,66	-0,144760	
34,485000	0,66	-0,157160	
34,496000	0,66	-0,165530	
34,507000	0,66	-0,161400	
34,518000	0,66	-0,156160	
34,529000	0,66	-0,150310	
34,540000	0,66	-0,144010	
34,551000	0,66	-0,148780	
34,562000	0,66	-0,163840	
34,573000	0,66	-0,176640	
34,584000	0,66	-0,174050	
34,595000	0,66	-0,159360	
34,606000	0,66	-0,144870	
34,617000	0,66	-0,138450	
34,628000	0,66	-0,138070	
34,639000	0,66	-0,146180	
34,650000	0,66	-0,150050	
34,661000	0,66	-0,149690	
34,672000	0,66	-0,146960	
34,683000	0,66	-0,160350	
34,694000	0,66	-0,174970	
34,705000	0,66	-0,181780	
34,716000	0,66	-0,179780	
34,727000	0,66	-0,167390	
34,738000	0,66	-0,164220	
34,749000	0,66	-0,162570	
34,760000	0,66	-0,149530	
34,771000	0,66	-0,141900	
34,782000	0,66	-0,137360	
34,793000	0,66	-0,127110	
34,804000	0,66	-0,136780	
34,815000	0,66	-0,157000	
34,826000	0,66	-0,161730	
34,837000	0,66	-0,156550	
34,848000	0,66	-0,152520	
34,859000	0,66	-0,146920	
34,870000	0,66	-0,147970	
34,881000	0,66	-0,158990	
34,892000	0,66	-0,155310	
34,903000	0,66	-0,153860	
34,914000	0,66	-0,163940	
34,925000	0,66	-0,172070	
34,936000	0,66	-0,167620	
34,947000	0,66	-0,161040	
34,958000	0,66	-0,153170	
34,969000	0,66	-0,137440	
34,980000	0,66	-0,148660	
34,991000	0,66	-0,156510	
35,002000	0,66	-0,165890	
35,013000	0,66	-0,157160	
35,024000	0,66	-0,147510	
35,035000	0,66	-0,165240	
35,046000	0,66	-0,158700	
35,057000	0,66	-0,148310	
35,068000	0,66	-0,155010	
35,079000	0,66	-0,166380	
35,090000	0,66	-0,190340	
35,101000	0,66	-0,186440	
35,112000	0,66	-0,176530	
35,123000	0,66	-0,181760	
35,134000	0,66	-0,184400	
35,145000	0,66	-0,179740	
35,156000	0,66	-0,179370	
35,167000	0,66	-0,172300	
35,178000	0,66	-0,166100	
35,189000	0,66	-0,159930	
35,200000	0,66	-0,156990	
35,211000	0,66	-0,153770	
35,222000	0,66	-0,139920	
35,233000	0,66	-0,122370	
35,244000	0,66	-0,119980	
35,255000	0,66	-0,135320	
35,266000	0,66	-0,159470	
35,277000	0,66	-0,165430	
35,288000	0,66	-0,148630	
35,299000	0,66	-0,147350	
35,310000	0,66	-0,145720	
35,321000	0,66	-0,146740	
35,332000	0,66	-0,154290	
35,343000	0,66	-0,153410	
35,354000	0,66	-0,147050	
35,365000	0,66	-0,154430	
35,376000	0,66	-0,158830	
35,387000	0,66	-0,155500	
35,398000	0,66	-0,166270	
35,409000	0,66	-0,168490	
35,420000	0,66	-0,164230	
35,431000	0,66	-0,157350	
35,442000	0,66	-0,142680	
35,453000	0,66	-0,142130	
35,464000	0,66	-0,136200	
35,475000	0,66	-0,145720	
35,486000	0,66	-0,150770	
35,497000	0,66	-0,145000	
35,508000	0,66	-0,150160	
35,519000	0,66	-0,142910	
35,530000	0,66	-0,136760	
35,541000	0,66	-0,136680	
35,552000	0,66	-0,127320	
35,563000	0,66	-0,121160	
35,574000	0,66	-0,132970	
35,585000	0,66	-0,130300	
35,596000	0,66	-0,138170	
35,607000	0,66	-0,153500	
35,618000	0,66	-0,163800	
35,629000	0,66	-0,168350	
35,640000	0,66	-0,171360	
35,651000	0,66	-0,172950	
35,662000	0,66	-0,174130	
35,673000	0,66	-0,166950	
35,684000	0,66	-0,164230	
35,695000	0,66	-0,167190	
35,706000	0,66	-0,172300	
35,717000	0,66	-0,163910	
35,728000	0,66	-0,161380	
35,739000	0,66	-0,170150	
35,750000	0,66	-0,155180	
35,761000	0,66	-0,165870	
35,772000	0,66	-0,169450	
35,783000	0,66	-0,165120	
35,794000	0,66	-0,171020	
35,805000	0,66	-0,167120	
35,816000	0,66	-0,169540	
35,827000	0,66	-0,160490	
35,838000	0,66	-0,148550	
35,849000	0,66	-0,158730	
35,860000	0,66	-0,156590	
35,871000	0,66	-0,144430	
35,882000	0,66	-0,146940	
35,893000	0,66	-0,153070	
35,904000	0,66	-0,158830	
35,915000	0,66	-0,149200	
35,926000	0,66	-0,133800	
35,937000	0,66	-0,147180	
35,948000	0,66	-0,177480	
35,959000	0,66	-0,195260	
35,970000	0,66	-0,186740	
35,981000	0,66	-0,180200	
35,992000	0,66	-0,190600	
36,003000	0,66	-0,195320	
36,014000	0,66	-0,202470	
36,025000	0,66	-0,196850	
36,036000	0,66	-0,194220	
36,047000	0,66	-0,186420	
36,058000	0,66	-0,174550	
36,069000	0,66	-0,166000	
36,080000	0,66	-0,154360	
36,091000	0,66	-0,162760	
36,102000	0,66	-0,176540	
36,113000	0,66	-0,171410	
36,124000	0,66	-0,137720	
36,135000	0,66	-0,119830	
36,146000	0,66	-0,110820	
36,157000	0,66	-0,131410	
36,168000	0,66	-0,136810	
36,179000	0,66	-0,160770	
36,190000	0,66	-0,173490	
36,201000	0,66	-0,181180	
36,212000	0,66	-0,167940	
36,223000	0,66	-0,166840	
36,234000	0,66	-0,151150	
36,245000	0,66	-0,154550	
36,256000	0,66	-0,163780	
36,267000	0,66	-0,178010	
36,278000	0,66	-0,180270	
36,289000	0,66	-0,150380	
36,300000	0,66	-0,157880	
36,311000	0,66	-0,170450	
36,322000	0,66	-0,174760	
36,333000	0,66	-0,166830	
36,344000	0,66	-0,160310	
36,355000	0,66	-0,152200	
36,366000	0,66	-0,167330	
36,377000	0,66	-0,175930	
36,388000	0,66	-0,175040	
36,399000	0,66	-0,171250	
36,410000	0,66	-0,167080	
36,421000	0,66	-0,166540	
36,432000	0,66	-0,180700	
36,443000	0,66	-0,178960	
36,454000	0,66	-0,179610	
36,465000	0,66	-0,199300	
36,476000	0,66	-0,185370	
36,487000	0,66	-0,180340	
36,498000	0,66	-0,187460	
36,509000	0,66	-0,173810	
36,520000	0,66	-0,169660	
36,531000	0,66	-0,177550	
36,542000	0,66	-0,174680	
36,553000	0,66	-0,168330	
36,564000	0,66	-0,154770	
36,575000	0,66	-0,154120	
36,586000	0,66	-0,163820	
36,597000	0,66	-0,167480	
36,608000	0,66	-0,170910	
36,619000	0,66	-0,171070	
36,630000	0,66	-0,166270	
36,641000	0,66	-0,162850	
36,652000	0,66	-0,161380	
36,663000	0,66	-0,160990	
36,674000	0,66	-0,166970	
36,685000	0,66	-0,164620	
36,696000	0,66	-0,156260	
36,707000	0,66	-0,166250	
36,718000	0,66	-0,167330	
36,729000	0,66	-0,172950	
36,740000	0,66	-0,187300	
36,751000	0,66	-0,190610	
36,762000	0,66	-0,199010	
36,773000	0,66	-0,198700	
36,784000	0,66	-0,191290	
36,795000	0,66	-0,200450	
36,806000	0,66	-0,199820	
36,817000	0,66	-0,205670	
36,828000	0,66	-0,217470	
36,839000	0,66	-0,217390	
36,850000	0,66	-0,205330	
36,861000	0,66	-0,183250	
36,872000	0,66	-0,191800	
36,883000	0,66	-0,208440	
36,894000	0,66	-0,193490	
36,905000	0,66	-0,197610	
36,916000	0,66	-0,199050	
36,927000	0,66	-0,184090	
36,938000	0,66	-0,187550	
36,949000	0,66	-0,170860	
36,960000	0,66	-0,184060	
36,971000	0,66	-0,198760	
36,982000	0,66	-0,195980	
36,993000	0,66	-0,200650	
37,004000	0,66	-0,196480	
37,015000	0,66	-0,207200	
37,026000	0,66	-0,217480	
37,037000	0,66	-0,223070	
37,048000	0,66	-0,226470	
37,059000	0,66	-0,229880	
37,070000	0,66	-0,211090	
37,081000	0,66	-0,196610	
37,092000	0,66	-0,189710	
37,103000	0,66	-0,205140	
37,114000	0,66	-0,208660	
37,125000	0,66	-0,202720	
37,136000	0,66	-0,199840	
37,147000	0,66	-0,224090	
37,158000	0,66	-0,238490	
37,169000	0,66	-0,235360	
37,180000	0,66	-0,230990	
37,191000	0,66	-0,224730	
37,202000	0,66	-0,225650	
37,213000	0,66	-0,218420	
37,224000	0,66	-0,222890	
37,235000	0,66	-0,240630	
37,246000	0,66	-0,237610	
37,257000	0,66	-0,237760	
37,268000	0,66	-0,245400	
37,279000	0,66	-0,236840	
37,290000	0,66	-0,223650	
37,301000	0,66	-0,219380	
37,312000	0,66	-0,231980	
37,323000	0,66	-0,245780	
37,334000	0,66	-0,240140	
37,345000	0,66	-0,218960	
37,356000	0,66	-0,202020	
37,367000	0,66	-0,200850	
37,378000	0,66	-0,202990	
37,389000	0,66	-0,212650	
37,400000	0,66	-0,218880	
37,411000	0,66	-0,217440	
37,422000	0,66	-0,224730	
37,433000	0,66	-0,231990	
37,444000	0,66	-0,253240	
37,455000	0,66	-0,256210	
37,466000	0,66	-0,236540	
37,477000	0,66	-0,232310	
37,488000	0,66	-0,229190	
37,499000	0,66	-0,230120	
37,510000	0,66	-0,220940	
37,521000	0,66	-0,227510	
37,532000	0,66	-0,238490	
37,543000	0,66	-0,241000	
37,554000	0,66	-0,238610	
37,565000	0,66	-0,241050	
37,576000	0,66	-0,234750	
37,587000	0,66	-0,243160	
37,598000	0,66	-0,252310	
37,609000	0,66	-0,257550	
37,620000	0,66	-0,257650	
37,631000	0,66	-0,252310	
37,642000	0,66	-0,237290	
37,653000	0,66	-0,237320	
37,664000	0,66	-0,237630	
37,675000	0,66	-0,234660	
37,686000	0,66	-0,239760	
37,697000	0,66	-0,227890	
37,708000	0,66	-0,230920	
37,719000	0,66	-0,249590	
37,730000	0,66	-0,233460	
37,741000	0,66	-0,236940	
37,752000	0,66	-0,247980	
37,763000	0,66	-0,247950	
37,774000	0,66	-0,231950	
37,785000	0,66	-0,227220	
37,796000	0,66	-0,227500	
37,807000	0,66	-0,221920	
37,818000	0,66	-0,230400	
37,829000	0,66	-0,239830	
37,840000	0,66	-0,245280	
37,851000	0,66	-0,232100	
37,862000	0,66	-0,223560	
37,873000	0,66	-0,218900	
37,884000	0,66	-0,206300	
37,895000	0,66	-0,204870	
37,906000	0,66	-0,204840	
37,917000	0,66	-0,201380	
37,928000	0,66	-0,209040	
37,939000	0,66	-0,217660	
37,950000	0,66	-0,216670	
37,961000	0,66	-0,215910	
37,972000	0,66	-0,212260	
37,983000	0,66	-0,206810	
37,994000	0,66	-0,196130	
38,005000	0,66	-0,192080	
38,016000	0,66	-0,199310	
38,027000	0,66	-0,206880	
38,038000	0,66	-0,210530	
38,049000	0,66	-0,208960	
38,060000	0,66	-0,219260	
38,071000	0,66	-0,226150	
38,082000	0,66	-0,215160	
38,093000	0,66	-0,207800	
38,104000	0,66	-0,202830	
38,115000	0,66	-0,201470	
38,126000	0,66	-0,195270	
38,137000	0,66	-0,202550	
38,148000	0,66	-0,202870	
38,159000	0,66	-0,199160	
38,170000	0,66	-0,204530	
38,181000	0,66	-0,210620	
38,192000	0,66	-0,197050	
38,203000	0,66	-0,214420	
38,214000	0,66	-0,225180	
38,225000	0,66	-0,231860	
38,236000	0,66	-0,232090	
38,247000	0,66	-0,230070	
38,258000	0,66	-0,238770	
38,269000	0,66	-0,229190	
38,280000	0,66	-0,222590	
38,291000	0,66	-0,218640	
38,302000	0,66	-0,204460	
38,313000	0,66	-0,199010	
38,324000	0,66	-0,193030	
38,335000	0,66	-0,188290	
38,346000	0,66	-0,210370	
38,357000	0,66	-0,219360	
38,368000	0,66	-0,223430	
38,379000	0,66	-0,205600	
38,390000	0,66	-0,192540	
38,401000	0,66	-0,181750	
38,412000	0,66	-0,174710	
38,423000	0,66	-0,184160	
38,434000	0,66	-0,200230	
38,445000	0,66	-0,201400	
38,456000	0,66	-0,206320	
38,467000	0,66	-0,192640	
38,478000	0,66	-0,184840	
38,489000	0,66	-0,186880	
38,500000	0,66	-0,190100	
38,511000	0,66	-0,184370	
38,522000	0,66	-0,191850	
38,533000	0,66	-0,205040	
38,544000	0,66	-0,206210	
38,555000	0,66	-0,191900	
38,566000	0,66	-0,203480	
38,577000	0,66	-0,216290	
38,588000	0,66	-0,209810	
38,599000	0,66	-0,198900	
38,610000	0,66	-0,182260	
38,621000	0,66	-0,185350	
38,632000	0,66	-0,170920	
38,643000	0,66	-0,159840	
38,654000	0,66	-0,170230	
38,665000	0,66	-0,182450	
38,676000	0,66	-0,174450	
38,687000	0,66	-0,175510	
38,698000	0,66	-0,187360	
38,709000	0,66	-0,192020	
38,720000	0,66	-0,194360	
38,731000	0,66	-0,191710	
38,742000	0,66	-0,186880	
38,753000	0,66	-0,180470	
38,764000	0,66	-0,172260	
38,775000	0,66	-0,168970	
38,786000	0,66	-0,177100	
38,797000	0,66	-0,182170	
38,808000	0,66	-0,177510	
38,819000	0,66	-0,180500	
38,830000	0,66	-0,179730	
38,841000	0,66	-0,170840	
38,852000	0,66	-0,173910	
38,863000	0,66	-0,183370	
38,874000	0,66	-0,190630	
38,885000	0,66	-0,166020	
38,896000	0,66	-0,171830	
38,907000	0,66	-0,176850	
38,918000	0,66	-0,193880	
38,929000	0,66	-0,190250	
38,940000	0,66	-0,191920	
38,951000	0,66	-0,194710	
38,962000	0,66	-0,170240	
38,973000	0,66	-0,154820	
38,984000	0,66	-0,158630	
38,995000	0,66	-0,158470	
39,006000	0,66	-0,152670	
39,017000	0,66	-0,155690	
39,028000	0,66	-0,155950	
39,039000	0,66	-0,157200	
39,050000	0,66	-0,152670	
39,061000	0,66	-0,144580	
39,072000	0,66	-0,142020	
39,083000	0,66	-0,141530	
39,094000	0,66	-0,130670	
39,105000	0,66	-0,116690	
39,116000	0,66	-0,111680	
39,127000	0,66	-0,124140	
39,138000	0,66	-0,140940	
39,149000	0,66	-0,141070	
39,160000	0,66	-0,145040	
39,171000	0,66	-0,137020	
39,182000	0,66	-0,142850	
39,193000	0,66	-0,154040	
39,204000	0,66	-0,145690	
39,215000	0,66	-0,139160	
39,226000	0,66	-0,139200	
39,237000	0,66	-0,141050	
39,248000	0,66	-0,143450	
39,259000	0,66	-0,152650	
39,270000	0,66	-0,139370	
39,281000	0,66	-0,138150	
39,292000	0,66	-0,147490	
39,303000	0,66	-0,140900	
39,314000	0,66	-0,141920	
39,325000	0,66	-0,143520	
39,336000	0,66	-0,137650	
39,347000	0,66	-0,130030	
39,358000	0,66	-0,127380	
39,369000	0,66	-0,121160	
39,380000	0,66	-0,124880	
39,391000	0,66	-0,147690	
39,402000	0,66	-0,157410	
39,413000	0,66	-0,144290	
39,424000	0,66	-0,126280	
39,435000	0,66	-0,117860	
39,446000	0,66	-0,113890	
39,457000	0,66	-0,108350	
39,468000	0,66	-0,114370	
39,479000	0,66	-0,128170	
39,490000	0,66	-0,139080	
39,501000	0,66	-0,136510	
39,512000	0,66	-0,132390	
39,523000	0,66	-0,135130	
39,534000	0,66	-0,128620	
39,545000	0,66	-0,126080	
39,556000	0,66	-0,140140	
39,567000	0,66	-0,143770	
39,578000	0,66	-0,128230	
39,589000	0,66	-0,116610	
39,600000	0,66	-0,122070	
39,611000	0,66	-0,126340	
39,622000	0,66	-0,131770	
39,633000	0,66	-0,128350	
39,644000	0,66	-0,134920	
39,655000	0,66	-0,132870	
39,666000	0,66	-0,136940	
39,677000	0,66	-0,133740	
39,688000	0,66	-0,117930	
39,699000	0,66	-0,103790	
39,710000	0,66	-0,101660	
39,721000	0,66	-0,101770	
39,732000	0,66	-0,091050	
39,743000	0,66	-0,113450	
39,754000	0,66	-0,123850	
39,765000	0,66	-0,124430	
39,776000	0,66	-0,117640	
39,787000	0,66	-0,116990	
39,798000	0,66	-0,119690	
39,809000	0,66	-0,129930	
39,820000	0,66	-0,116380	
39,831000	0,66	-0,110940	
39,842000	0,66	-0,101350	
39,853000	0,66	-0,090550	
39,864000	0,66	-0,091050	
39,875000	0,66	-0,074100	
39,886000	0,66	-0,079930	
39,897000	0,66	-0,070130	
39,908000	0,66	-0,083450	
39,919000	0,66	-0,097570	
39,930000	0,66	-0,092790	
39,941000	0,66	-0,084920	
39,952000	0,66	-0,080240	
39,963000	0,66	-0,086130	
39,974000	0,66	-0,090570	
39,985000	0,66	-0,087370	
39,996000	0,66	-0,090500	
40,007000	0,66	-0,094230	
