Filepath	C:\Chromel\data\Analytik\Walther group\Guido\mechanosense\GCR260.SEQ\UV_VIS_3.CHL\12214.acd
Channel	UV_VIS_3

Sample Information:
Datasource	PC-8NN4M2J_local
Sequence	Analytik\Walther group\Guido\mechanosense\GCR260.SEQ
Sample	200717-13
Sample Number	318
Sample Position	RC3
Sample ID	12214
Comment	260-P5-4
QNT method	default
PGM file	single-component-3 40min 60C 0,4mLmin
Type	unknown
Status	finished
Date	17.07.2020
Time	19:30:01
Injection Volume (µl)	100,00
Dilution Factor	1,000000
Amount	1,000000
Weight	1,000000

Raw Data Header Information:
Time Min. (min)	0,000
Time Max. (min)	40,007
Raw-Time Min. (min)	0,000
Raw-Time Max. (min)	40,007
Data Points	3638
Detector	VWD3000.dll
Preferred Read Mode	Unknown
Write Mode	Unknown
Data System	Chromeleon
Version High	06
Version Low	80
Build No.	3160
File Format Version	11
Generation Type	8
File ID	239054205
File Status	16
GUID	d4bb8dda-c852-11ea-b409-00184d71f7da
Signal Factor	0,000010
Signal Dimension	mAU
Signal Unit	Absorbance
Signal Min.	-1,56353
Signal Max.	23,669070
Channel Name	UV_VIS_3
Driver Name	VWD-3x00 Detector
Min. Step	66
Max. Step	66
Average Step	66

Signal Parameter Information:
Signal Info	WVL:610 nm
Wavelength	610 nm
	 




















Raw Data:
Time(min)	Step(sec)	Value(mAU)
0,000000	0,00	0,006530	
0,011000	0,66	0,008730	
0,022000	0,66	0,030920	
0,033000	0,66	0,042950	
0,044000	0,66	0,062220	
0,055000	0,66	0,070660	
0,066000	0,66	0,084770	
0,077000	0,66	0,091250	
0,088000	0,66	0,089770	
0,099000	0,66	0,088700	
0,110000	0,66	0,083230	
0,121000	0,66	0,080000	
0,132000	0,66	0,078750	
0,143000	0,66	0,057880	
0,154000	0,66	0,054570	
0,165000	0,66	0,054510	
0,176000	0,66	0,062220	
0,187000	0,66	0,063830	
0,198000	0,66	0,060010	
0,209000	0,66	0,056240	
0,220000	0,66	0,057060	
0,231000	0,66	0,066410	
0,242000	0,66	0,079220	
0,253000	0,66	0,078310	
0,264000	0,66	0,073700	
0,275000	0,66	0,070330	
0,286000	0,66	0,068060	
0,297000	0,66	0,069680	
0,308000	0,66	0,066120	
0,319000	0,66	0,065980	
0,330000	0,66	0,065860	
0,341000	0,66	0,064050	
0,352000	0,66	0,061740	
0,363000	0,66	0,059720	
0,374000	0,66	0,060790	
0,385000	0,66	0,063830	
0,396000	0,66	0,066000	
0,407000	0,66	0,065350	
0,418000	0,66	0,069100	
0,429000	0,66	0,072520	
0,440000	0,66	0,066930	
0,451000	0,66	0,065270	
0,462000	0,66	0,067210	
0,473000	0,66	0,056890	
0,484000	0,66	0,051140	
0,495000	0,66	0,055890	
0,506000	0,66	0,055710	
0,517000	0,66	0,055460	
0,528000	0,66	0,057020	
0,539000	0,66	0,049860	
0,550000	0,66	0,046640	
0,561000	0,66	0,053250	
0,572000	0,66	0,062480	
0,583000	0,66	0,065220	
0,594000	0,66	0,062720	
0,605000	0,66	0,059280	
0,616000	0,66	0,048990	
0,627000	0,66	0,056000	
0,638000	0,66	0,057790	
0,649000	0,66	0,065270	
0,660000	0,66	0,062810	
0,671000	0,66	0,059170	
0,682000	0,66	0,070390	
0,693000	0,66	0,078490	
0,704000	0,66	0,065850	
0,715000	0,66	0,056490	
0,726000	0,66	0,059640	
0,737000	0,66	0,057290	
0,748000	0,66	0,038850	
0,759000	0,66	0,025180	
0,770000	0,66	0,026740	
0,781000	0,66	0,040540	
0,792000	0,66	0,052010	
0,803000	0,66	0,052310	
0,814000	0,66	0,053750	
0,825000	0,66	0,064660	
0,836000	0,66	0,066360	
0,847000	0,66	0,061910	
0,858000	0,66	0,055460	
0,869000	0,66	0,061670	
0,880000	0,66	0,061020	
0,891000	0,66	0,052510	
0,902000	0,66	0,059800	
0,913000	0,66	0,066460	
0,924000	0,66	0,069700	
0,935000	0,66	0,065560	
0,946000	0,66	0,070270	
0,957000	0,66	0,074980	
0,968000	0,66	0,071800	
0,979000	0,66	0,067220	
0,990000	0,66	0,061810	
1,001000	0,66	0,055100	
1,012000	0,66	0,053720	
1,023000	0,66	0,054080	
1,034000	0,66	0,054590	
1,045000	0,66	0,050750	
1,056000	0,66	0,041270	
1,067000	0,66	0,043220	
1,078000	0,66	0,048560	
1,089000	0,66	0,046630	
1,100000	0,66	0,052730	
1,111000	0,66	0,055090	
1,122000	0,66	0,053580	
1,133000	0,66	0,053150	
1,144000	0,66	0,034060	
1,155000	0,66	0,031410	
1,166000	0,66	0,048560	
1,177000	0,66	0,047690	
1,188000	0,66	0,037700	
1,199000	0,66	0,035170	
1,210000	0,66	0,035200	
1,221000	0,66	0,030290	
1,232000	0,66	0,036320	
1,243000	0,66	0,039740	
1,254000	0,66	0,044160	
1,265000	0,66	0,047700	
1,276000	0,66	0,056970	
1,287000	0,66	0,045370	
1,298000	0,66	0,001980	
1,309000	0,66	-0,104890	
1,320000	0,66	-0,310880	
1,331000	0,66	-0,546290	
1,342000	0,66	-0,738650	
1,353000	0,66	-0,811910	
1,364000	0,66	-0,755660	
1,375000	0,66	-0,607850	
1,386000	0,66	-0,412290	
1,397000	0,66	-0,230170	
1,408000	0,66	-0,072830	
1,419000	0,66	0,055720	
1,430000	0,66	0,159950	
1,441000	0,66	0,228210	
1,452000	0,66	0,273140	
1,463000	0,66	0,314380	
1,474000	0,66	0,354130	
1,485000	0,66	0,393550	
1,496000	0,66	0,449200	
1,507000	0,66	0,502580	
1,518000	0,66	0,570350	
1,529000	0,66	0,623830	
1,540000	0,66	0,680960	
1,551000	0,66	0,746540	
1,562000	0,66	0,809830	
1,573000	0,66	0,862350	
1,584000	0,66	0,884820	
1,595000	0,66	0,884330	
1,606000	0,66	0,860320	
1,617000	0,66	0,796160	
1,628000	0,66	0,709830	
1,639000	0,66	0,591400	
1,650000	0,66	0,442590	
1,661000	0,66	0,294420	
1,672000	0,66	0,153450	
1,683000	0,66	0,032120	
1,694000	0,66	-0,061440	
1,705000	0,66	-0,116680	
1,716000	0,66	-0,145440	
1,727000	0,66	-0,163910	
1,738000	0,66	-0,163900	
1,749000	0,66	-0,132800	
1,760000	0,66	-0,080010	
1,771000	0,66	-0,030150	
1,782000	0,66	0,007170	
1,793000	0,66	0,050560	
1,804000	0,66	0,102870	
1,815000	0,66	0,146970	
1,826000	0,66	0,177190	
1,837000	0,66	0,213640	
1,848000	0,66	0,264410	
1,859000	0,66	0,289740	
1,870000	0,66	0,306640	
1,881000	0,66	0,324520	
1,892000	0,66	0,323590	
1,903000	0,66	0,323520	
1,914000	0,66	0,335240	
1,925000	0,66	0,332810	
1,936000	0,66	0,339530	
1,947000	0,66	0,338040	
1,958000	0,66	0,335060	
1,969000	0,66	0,342250	
1,980000	0,66	0,346020	
1,991000	0,66	0,349690	
2,002000	0,66	0,362150	
2,013000	0,66	0,374360	
2,024000	0,66	0,380730	
2,035000	0,66	0,372500	
2,046000	0,66	0,378640	
2,057000	0,66	0,381280	
2,068000	0,66	0,367190	
2,079000	0,66	0,372680	
2,090000	0,66	0,369030	
2,101000	0,66	0,387600	
2,112000	0,66	0,390720	
2,123000	0,66	0,382500	
2,134000	0,66	0,389820	
2,145000	0,66	0,386310	
2,156000	0,66	0,384040	
2,167000	0,66	0,358130	
2,178000	0,66	0,223920	
2,189000	0,66	-0,135100	
2,200000	0,66	-0,665670	
2,211000	0,66	-1,142260	
2,222000	0,66	-1,459060	
2,233000	0,66	-1,563530	
2,244000	0,66	-1,513150	
2,255000	0,66	-1,355120	
2,266000	0,66	-1,140270	
2,277000	0,66	-0,934680	
2,288000	0,66	-0,744030	
2,299000	0,66	-0,572220	
2,310000	0,66	-0,413230	
2,321000	0,66	-0,284520	
2,332000	0,66	-0,198880	
2,343000	0,66	-0,139460	
2,354000	0,66	-0,087470	
2,365000	0,66	-0,045750	
2,376000	0,66	-0,028680	
2,387000	0,66	-0,007650	
2,398000	0,66	0,012720	
2,409000	0,66	0,018060	
2,420000	0,66	0,024830	
2,431000	0,66	0,033520	
2,442000	0,66	0,037430	
2,453000	0,66	0,033090	
2,464000	0,66	0,035890	
2,475000	0,66	0,037450	
2,486000	0,66	0,024100	
2,497000	0,66	0,014770	
2,508000	0,66	0,019150	
2,519000	0,66	0,035280	
2,530000	0,66	0,041110	
2,541000	0,66	0,044740	
2,552000	0,66	0,051300	
2,563000	0,66	0,042080	
2,574000	0,66	0,030410	
2,585000	0,66	0,036150	
2,596000	0,66	0,042570	
2,607000	0,66	0,036940	
2,618000	0,66	0,038340	
2,629000	0,66	0,055490	
2,640000	0,66	0,059720	
2,651000	0,66	0,054500	
2,662000	0,66	0,051910	
2,673000	0,66	0,040110	
2,684000	0,66	0,034830	
2,695000	0,66	0,036590	
2,706000	0,66	0,033830	
2,717000	0,66	0,042570	
2,728000	0,66	0,052590	
2,739000	0,66	0,057000	
2,750000	0,66	0,045740	
2,761000	0,66	0,057180	
2,772000	0,66	0,057020	
2,783000	0,66	0,052220	
2,794000	0,66	0,042540	
2,805000	0,66	0,033380	
2,816000	0,66	0,033100	
2,827000	0,66	0,027670	
2,838000	0,66	0,018060	
2,849000	0,66	0,011140	
2,860000	0,66	0,026610	
2,871000	0,66	0,043440	
2,882000	0,66	0,043120	
2,893000	0,66	0,023220	
2,904000	0,66	0,032070	
2,915000	0,66	0,045880	
2,926000	0,66	0,065620	
2,937000	0,66	0,057230	
2,948000	0,66	0,043660	
2,959000	0,66	0,031290	
2,970000	0,66	0,027520	
2,981000	0,66	0,029440	
2,992000	0,66	0,039300	
3,003000	0,66	0,052770	
3,014000	0,66	0,053820	
3,025000	0,66	0,049370	
3,036000	0,66	0,048310	
3,047000	0,66	0,051720	
3,058000	0,66	0,048550	
3,069000	0,66	0,045150	
3,080000	0,66	0,045930	
3,091000	0,66	0,051440	
3,102000	0,66	0,046750	
3,113000	0,66	0,033940	
3,124000	0,66	0,032250	
3,135000	0,66	0,032540	
3,146000	0,66	0,029020	
3,157000	0,66	0,026760	
3,168000	0,66	0,024930	
3,179000	0,66	0,032630	
3,190000	0,66	0,046260	
3,201000	0,66	0,050650	
3,212000	0,66	0,044720	
3,223000	0,66	0,037330	
3,234000	0,66	0,042940	
3,245000	0,66	0,051440	
3,256000	0,66	0,043710	
3,267000	0,66	0,034490	
3,278000	0,66	0,031050	
3,289000	0,66	0,020570	
3,300000	0,66	0,020550	
3,311000	0,66	0,021770	
3,322000	0,66	0,013490	
3,333000	0,66	0,019270	
3,344000	0,66	0,037030	
3,355000	0,66	0,044950	
3,366000	0,66	0,043900	
3,377000	0,66	0,049540	
3,388000	0,66	0,043440	
3,399000	0,66	0,055810	
3,410000	0,66	0,051350	
3,421000	0,66	0,048270	
3,432000	0,66	0,036880	
3,443000	0,66	0,032450	
3,454000	0,66	0,022540	
3,465000	0,66	0,033950	
3,476000	0,66	0,038160	
3,487000	0,66	0,037300	
3,498000	0,66	0,036030	
3,509000	0,66	0,024880	
3,520000	0,66	0,021750	
3,531000	0,66	0,033390	
3,542000	0,66	0,036670	
3,553000	0,66	0,038840	
3,564000	0,66	0,027350	
3,575000	0,66	0,029070	
3,586000	0,66	0,032250	
3,597000	0,66	0,027300	
3,608000	0,66	0,027700	
3,619000	0,66	0,018300	
3,630000	0,66	0,014660	
3,641000	0,66	0,026260	
3,652000	0,66	0,040940	
3,663000	0,66	0,046700	
3,674000	0,66	0,037040	
3,685000	0,66	0,039160	
3,696000	0,66	0,039370	
3,707000	0,66	0,033900	
3,718000	0,66	0,023510	
3,729000	0,66	0,012200	
3,740000	0,66	0,018970	
3,751000	0,66	0,027740	
3,762000	0,66	0,038210	
3,773000	0,66	0,035110	
3,784000	0,66	0,030980	
3,795000	0,66	0,027400	
3,806000	0,66	0,023930	
3,817000	0,66	0,021700	
3,828000	0,66	0,022960	
3,839000	0,66	0,017580	
3,850000	0,66	0,013110	
3,861000	0,66	0,022070	
3,872000	0,66	0,039420	
3,883000	0,66	0,049290	
3,894000	0,66	0,040870	
3,905000	0,66	0,039160	
3,916000	0,66	0,037480	
3,927000	0,66	0,034620	
3,938000	0,66	0,042730	
3,949000	0,66	0,035180	
3,960000	0,66	0,022900	
3,971000	0,66	0,021130	
3,982000	0,66	0,027710	
3,993000	0,66	0,030020	
4,004000	0,66	0,016980	
4,015000	0,66	0,022600	
4,026000	0,66	0,040220	
4,037000	0,66	0,040620	
4,048000	0,66	0,037800	
4,059000	0,66	0,038860	
4,070000	0,66	0,032360	
4,081000	0,66	0,026440	
4,092000	0,66	0,031530	
4,103000	0,66	0,034150	
4,114000	0,66	0,031220	
4,125000	0,66	0,024220	
4,136000	0,66	0,026890	
4,147000	0,66	0,024050	
4,158000	0,66	0,020010	
4,169000	0,66	0,022680	
4,180000	0,66	0,022560	
4,191000	0,66	0,019770	
4,202000	0,66	0,021360	
4,213000	0,66	0,033660	
4,224000	0,66	0,029010	
4,235000	0,66	0,038120	
4,246000	0,66	0,045270	
4,257000	0,66	0,050370	
4,268000	0,66	0,043800	
4,279000	0,66	0,032610	
4,290000	0,66	0,036890	
4,301000	0,66	0,035210	
4,312000	0,66	0,032650	
4,323000	0,66	0,024660	
4,334000	0,66	0,013950	
4,345000	0,66	0,010310	
4,356000	0,66	0,007380	
4,367000	0,66	0,016710	
4,378000	0,66	0,024390	
4,389000	0,66	0,030980	
4,400000	0,66	0,027500	
4,411000	0,66	0,033360	
4,422000	0,66	0,035860	
4,433000	0,66	0,028990	
4,444000	0,66	0,027410	
4,455000	0,66	0,033340	
4,466000	0,66	0,027930	
4,477000	0,66	0,030050	
4,488000	0,66	0,029830	
4,499000	0,66	0,028230	
4,510000	0,66	0,015840	
4,521000	0,66	0,005530	
4,532000	0,66	0,014720	
4,543000	0,66	0,032910	
4,554000	0,66	0,047860	
4,565000	0,66	0,040860	
4,576000	0,66	0,030480	
4,587000	0,66	0,033870	
4,598000	0,66	0,038240	
4,609000	0,66	0,046410	
4,620000	0,66	0,049170	
4,631000	0,66	0,045880	
4,642000	0,66	0,044520	
4,653000	0,66	0,042570	
4,664000	0,66	0,035840	
4,675000	0,66	0,035290	
4,686000	0,66	0,035420	
4,697000	0,66	0,018510	
4,708000	0,66	0,015800	
4,719000	0,66	0,021620	
4,730000	0,66	0,018290	
4,741000	0,66	0,018290	
4,752000	0,66	0,020000	
4,763000	0,66	0,023060	
4,774000	0,66	0,033380	
4,785000	0,66	0,030080	
4,796000	0,66	0,030300	
4,807000	0,66	0,026620	
4,818000	0,66	0,025050	
4,829000	0,66	0,023120	
4,840000	0,66	0,014270	
4,851000	0,66	0,016680	
4,862000	0,66	0,020090	
4,873000	0,66	0,017950	
4,884000	0,66	0,017960	
4,895000	0,66	0,004490	
4,906000	0,66	0,005850	
4,917000	0,66	0,023920	
4,928000	0,66	0,030990	
4,939000	0,66	0,026370	
4,950000	0,66	0,022580	
4,961000	0,66	0,008040	
4,972000	0,66	0,013260	
4,983000	0,66	0,014000	
4,994000	0,66	0,022320	
5,005000	0,66	0,014100	
5,016000	0,66	0,008660	
5,027000	0,66	0,011890	
5,038000	0,66	0,017200	
5,049000	0,66	0,017960	
5,060000	0,66	0,015670	
5,071000	0,66	0,009260	
5,082000	0,66	0,003320	
5,093000	0,66	0,013070	
5,104000	0,66	0,014730	
5,115000	0,66	0,013620	
5,126000	0,66	0,020240	
5,137000	0,66	0,026000	
5,148000	0,66	0,019800	
5,159000	0,66	0,013010	
5,170000	0,66	0,015360	
5,181000	0,66	0,021780	
5,192000	0,66	0,020370	
5,203000	0,66	0,026860	
5,214000	0,66	0,034110	
5,225000	0,66	0,026350	
5,236000	0,66	0,018280	
5,247000	0,66	0,018390	
5,258000	0,66	0,019510	
5,269000	0,66	0,022170	
5,280000	0,66	0,021080	
5,291000	0,66	0,014230	
5,302000	0,66	0,014200	
5,313000	0,66	0,016490	
5,324000	0,66	0,015970	
5,335000	0,66	0,016640	
5,346000	0,66	0,018800	
5,357000	0,66	0,018140	
5,368000	0,66	0,028110	
5,379000	0,66	0,034940	
5,390000	0,66	0,023640	
5,401000	0,66	0,019720	
5,412000	0,66	0,014480	
5,423000	0,66	0,010760	
5,434000	0,66	0,011070	
5,445000	0,66	0,013650	
5,456000	0,66	0,017480	
5,467000	0,66	0,025650	
5,478000	0,66	0,031280	
5,489000	0,66	0,018950	
5,500000	0,66	0,018040	
5,511000	0,66	0,015450	
5,522000	0,66	0,009610	
5,533000	0,66	0,010110	
5,544000	0,66	0,016260	
5,555000	0,66	0,024430	
5,566000	0,66	0,012020	
5,577000	0,66	0,008190	
5,588000	0,66	0,004180	
5,599000	0,66	-0,002850	
5,610000	0,66	-0,014550	
5,621000	0,66	-0,010880	
5,632000	0,66	-0,004990	
5,643000	0,66	-0,000040	
5,654000	0,66	0,000310	
5,665000	0,66	-0,010500	
5,676000	0,66	-0,017120	
5,687000	0,66	-0,006900	
5,698000	0,66	-0,013600	
5,709000	0,66	-0,013190	
5,720000	0,66	-0,026330	
5,731000	0,66	-0,021790	
5,742000	0,66	-0,024340	
5,753000	0,66	-0,027520	
5,764000	0,66	-0,019690	
5,775000	0,66	-0,014560	
5,786000	0,66	-0,010980	
5,797000	0,66	-0,002260	
5,808000	0,66	-0,009760	
5,819000	0,66	-0,006670	
5,830000	0,66	-0,001680	
5,841000	0,66	-0,003830	
5,852000	0,66	-0,008680	
5,863000	0,66	-0,011650	
5,874000	0,66	-0,004680	
5,885000	0,66	-0,004980	
5,896000	0,66	-0,007960	
5,907000	0,66	-0,009610	
5,918000	0,66	-0,014850	
5,929000	0,66	-0,018710	
5,940000	0,66	-0,019960	
5,951000	0,66	-0,017980	
5,962000	0,66	-0,014800	
5,973000	0,66	-0,018600	
5,984000	0,66	-0,018990	
5,995000	0,66	-0,012640	
6,006000	0,66	-0,016040	
6,017000	0,66	-0,016870	
6,028000	0,66	-0,012080	
6,039000	0,66	-0,014410	
6,050000	0,66	-0,029380	
6,061000	0,66	-0,030340	
6,072000	0,66	-0,033520	
6,083000	0,66	-0,034630	
6,094000	0,66	-0,026550	
6,105000	0,66	-0,023330	
6,116000	0,66	-0,025420	
6,127000	0,66	-0,015810	
6,138000	0,66	-0,009840	
6,149000	0,66	-0,020160	
6,160000	0,66	-0,023130	
6,171000	0,66	-0,032810	
6,182000	0,66	-0,036430	
6,193000	0,66	-0,029580	
6,204000	0,66	-0,037930	
6,215000	0,66	-0,043510	
6,226000	0,66	-0,045130	
6,237000	0,66	-0,052300	
6,248000	0,66	-0,062760	
6,259000	0,66	-0,062530	
6,270000	0,66	-0,049920	
6,281000	0,66	-0,046810	
6,292000	0,66	-0,046670	
6,303000	0,66	-0,048350	
6,314000	0,66	-0,038990	
6,325000	0,66	-0,031150	
6,336000	0,66	-0,033440	
6,347000	0,66	-0,033020	
6,358000	0,66	-0,033930	
6,369000	0,66	-0,042050	
6,380000	0,66	-0,046040	
6,391000	0,66	-0,035430	
6,402000	0,66	-0,036610	
6,413000	0,66	-0,043810	
6,424000	0,66	-0,046840	
6,435000	0,66	-0,048700	
6,446000	0,66	-0,039390	
6,457000	0,66	-0,031490	
6,468000	0,66	-0,033980	
6,479000	0,66	-0,036130	
6,490000	0,66	-0,034610	
6,501000	0,66	-0,031780	
6,512000	0,66	-0,031370	
6,523000	0,66	-0,035050	
6,534000	0,66	-0,033350	
6,545000	0,66	-0,021100	
6,556000	0,66	-0,011440	
6,567000	0,66	-0,022500	
6,578000	0,66	-0,040560	
6,589000	0,66	-0,050400	
6,600000	0,66	-0,041960	
6,611000	0,66	-0,038120	
6,622000	0,66	-0,048260	
6,633000	0,66	-0,053680	
6,644000	0,66	-0,054170	
6,655000	0,66	-0,059600	
6,666000	0,66	-0,066860	
6,677000	0,66	-0,071070	
6,688000	0,66	-0,070980	
6,699000	0,66	-0,063000	
6,710000	0,66	-0,062450	
6,721000	0,66	-0,069160	
6,732000	0,66	-0,062600	
6,743000	0,66	-0,048960	
6,754000	0,66	-0,041640	
6,765000	0,66	-0,056660	
6,776000	0,66	-0,072100	
6,787000	0,66	-0,071570	
6,798000	0,66	-0,064950	
6,809000	0,66	-0,052310	
6,820000	0,66	-0,055740	
6,831000	0,66	-0,051360	
6,842000	0,66	-0,049470	
6,853000	0,66	-0,057890	
6,864000	0,66	-0,063190	
6,875000	0,66	-0,056320	
6,886000	0,66	-0,049940	
6,897000	0,66	-0,046610	
6,908000	0,66	-0,043830	
6,919000	0,66	-0,050630	
6,930000	0,66	-0,063740	
6,941000	0,66	-0,064670	
6,952000	0,66	-0,069100	
6,963000	0,66	-0,063950	
6,974000	0,66	-0,049790	
6,985000	0,66	-0,054540	
6,996000	0,66	-0,057020	
7,007000	0,66	-0,063870	
7,018000	0,66	-0,059310	
7,029000	0,66	-0,058010	
7,040000	0,66	-0,050540	
7,051000	0,66	-0,058140	
7,062000	0,66	-0,064330	
7,073000	0,66	-0,053450	
7,084000	0,66	-0,053630	
7,095000	0,66	-0,054970	
7,106000	0,66	-0,046550	
7,117000	0,66	-0,051270	
7,128000	0,66	-0,051520	
7,139000	0,66	-0,049500	
7,150000	0,66	-0,049180	
7,161000	0,66	-0,055070	
7,172000	0,66	-0,055570	
7,183000	0,66	-0,062200	
7,194000	0,66	-0,070930	
7,205000	0,66	-0,065060	
7,216000	0,66	-0,054900	
7,227000	0,66	-0,053730	
7,238000	0,66	-0,055960	
7,249000	0,66	-0,060260	
7,260000	0,66	-0,047390	
7,271000	0,66	-0,038280	
7,282000	0,66	-0,042570	
7,293000	0,66	-0,038310	
7,304000	0,66	-0,041060	
7,315000	0,66	-0,049050	
7,326000	0,66	-0,048050	
7,337000	0,66	-0,051660	
7,348000	0,66	-0,066070	
7,359000	0,66	-0,077960	
7,370000	0,66	-0,074770	
7,381000	0,66	-0,069400	
7,392000	0,66	-0,065490	
7,403000	0,66	-0,060430	
7,414000	0,66	-0,066640	
7,425000	0,66	-0,070270	
7,436000	0,66	-0,070330	
7,447000	0,66	-0,070330	
7,458000	0,66	-0,069120	
7,469000	0,66	-0,068410	
7,480000	0,66	-0,069150	
7,491000	0,66	-0,061870	
7,502000	0,66	-0,059490	
7,513000	0,66	-0,062330	
7,524000	0,66	-0,068500	
7,535000	0,66	-0,076440	
7,546000	0,66	-0,081220	
7,557000	0,66	-0,084330	
7,568000	0,66	-0,070460	
7,579000	0,66	-0,067310	
7,590000	0,66	-0,070510	
7,601000	0,66	-0,082480	
7,612000	0,66	-0,072420	
7,623000	0,66	-0,059860	
7,634000	0,66	-0,061210	
7,645000	0,66	-0,054120	
7,656000	0,66	-0,050810	
7,667000	0,66	-0,061770	
7,678000	0,66	-0,071540	
7,689000	0,66	-0,072040	
7,700000	0,66	-0,073450	
7,711000	0,66	-0,063310	
7,722000	0,66	-0,068240	
7,733000	0,66	-0,066600	
7,744000	0,66	-0,069370	
7,755000	0,66	-0,073610	
7,766000	0,66	-0,074970	
7,777000	0,66	-0,076290	
7,788000	0,66	-0,077460	
7,799000	0,66	-0,075890	
7,810000	0,66	-0,073130	
7,821000	0,66	-0,068380	
7,832000	0,66	-0,071890	
7,843000	0,66	-0,084070	
7,854000	0,66	-0,091000	
7,865000	0,66	-0,089380	
7,876000	0,66	-0,085350	
7,887000	0,66	-0,091700	
7,898000	0,66	-0,093230	
7,909000	0,66	-0,090540	
7,920000	0,66	-0,086190	
7,931000	0,66	-0,084140	
7,942000	0,66	-0,073360	
7,953000	0,66	-0,073860	
7,964000	0,66	-0,074090	
7,975000	0,66	-0,073890	
7,986000	0,66	-0,076660	
7,997000	0,66	-0,071070	
8,008000	0,66	-0,071340	
8,019000	0,66	-0,071360	
8,030000	0,66	-0,064150	
8,041000	0,66	-0,058580	
8,052000	0,66	-0,058510	
8,063000	0,66	-0,070970	
8,074000	0,66	-0,079850	
8,085000	0,66	-0,076100	
8,096000	0,66	-0,076750	
8,107000	0,66	-0,080270	
8,118000	0,66	-0,073530	
8,129000	0,66	-0,067510	
8,140000	0,66	-0,077250	
8,151000	0,66	-0,075420	
8,162000	0,66	-0,076090	
8,173000	0,66	-0,078640	
8,184000	0,66	-0,075110	
8,195000	0,66	-0,066510	
8,206000	0,66	-0,059300	
8,217000	0,66	-0,058700	
8,228000	0,66	-0,066660	
8,239000	0,66	-0,065710	
8,250000	0,66	-0,069690	
8,261000	0,66	-0,067080	
8,272000	0,66	-0,075960	
8,283000	0,66	-0,085000	
8,294000	0,66	-0,091620	
8,305000	0,66	-0,084040	
8,316000	0,66	-0,081760	
8,327000	0,66	-0,079730	
8,338000	0,66	-0,075180	
8,349000	0,66	-0,075050	
8,360000	0,66	-0,088630	
8,371000	0,66	-0,091820	
8,382000	0,66	-0,086410	
8,393000	0,66	-0,086060	
8,404000	0,66	-0,090380	
8,415000	0,66	-0,080380	
8,426000	0,66	-0,084330	
8,437000	0,66	-0,085670	
8,448000	0,66	-0,076570	
8,459000	0,66	-0,073720	
8,470000	0,66	-0,067050	
8,481000	0,66	-0,065450	
8,492000	0,66	-0,063040	
8,503000	0,66	-0,063660	
8,514000	0,66	-0,084560	
8,525000	0,66	-0,097670	
8,536000	0,66	-0,097950	
8,547000	0,66	-0,097930	
8,558000	0,66	-0,105800	
8,569000	0,66	-0,101620	
8,580000	0,66	-0,087780	
8,591000	0,66	-0,080050	
8,602000	0,66	-0,081810	
8,613000	0,66	-0,078240	
8,624000	0,66	-0,081450	
8,635000	0,66	-0,084120	
8,646000	0,66	-0,082420	
8,657000	0,66	-0,078300	
8,668000	0,66	-0,070280	
8,679000	0,66	-0,070430	
8,690000	0,66	-0,080380	
8,701000	0,66	-0,080330	
8,712000	0,66	-0,077900	
8,723000	0,66	-0,088530	
8,734000	0,66	-0,093100	
8,745000	0,66	-0,083040	
8,756000	0,66	-0,070080	
8,767000	0,66	-0,063090	
8,778000	0,66	-0,063620	
8,789000	0,66	-0,059500	
8,800000	0,66	-0,059550	
8,811000	0,66	-0,064550	
8,822000	0,66	-0,059580	
8,833000	0,66	-0,071500	
8,844000	0,66	-0,075190	
8,855000	0,66	-0,066260	
8,866000	0,66	-0,061810	
8,877000	0,66	-0,067930	
8,888000	0,66	-0,080180	
8,899000	0,66	-0,077410	
8,910000	0,66	-0,082390	
8,921000	0,66	-0,073610	
8,932000	0,66	-0,068940	
8,943000	0,66	-0,067420	
8,954000	0,66	-0,063830	
8,965000	0,66	-0,069640	
8,976000	0,66	-0,085160	
8,987000	0,66	-0,088440	
8,998000	0,66	-0,077880	
9,009000	0,66	-0,065600	
9,020000	0,66	-0,075030	
9,031000	0,66	-0,076720	
9,042000	0,66	-0,085250	
9,053000	0,66	-0,086600	
9,064000	0,66	-0,082860	
9,075000	0,66	-0,088500	
9,086000	0,66	-0,098810	
9,097000	0,66	-0,101860	
9,108000	0,66	-0,094860	
9,119000	0,66	-0,087940	
9,130000	0,66	-0,086560	
9,141000	0,66	-0,076980	
9,152000	0,66	-0,079480	
9,163000	0,66	-0,091470	
9,174000	0,66	-0,091020	
9,185000	0,66	-0,081820	
9,196000	0,66	-0,069510	
9,207000	0,66	-0,070410	
9,218000	0,66	-0,089110	
9,229000	0,66	-0,091230	
9,240000	0,66	-0,083860	
9,251000	0,66	-0,081660	
9,262000	0,66	-0,091510	
9,273000	0,66	-0,087240	
9,284000	0,66	-0,083780	
9,295000	0,66	-0,087300	
9,306000	0,66	-0,066130	
9,317000	0,66	-0,064500	
9,328000	0,66	-0,065990	
9,339000	0,66	-0,065660	
9,350000	0,66	-0,066900	
9,361000	0,66	-0,068460	
9,372000	0,66	-0,068670	
9,383000	0,66	-0,067730	
9,394000	0,66	-0,065050	
9,405000	0,66	-0,074410	
9,416000	0,66	-0,085360	
9,427000	0,66	-0,089100	
9,438000	0,66	-0,092710	
9,449000	0,66	-0,098710	
9,460000	0,66	-0,099330	
9,471000	0,66	-0,092530	
9,482000	0,66	-0,089020	
9,493000	0,66	-0,079020	
9,504000	0,66	-0,069630	
9,515000	0,66	-0,070030	
9,526000	0,66	-0,074140	
9,537000	0,66	-0,069470	
9,548000	0,66	-0,060890	
9,559000	0,66	-0,061580	
9,570000	0,66	-0,075710	
9,581000	0,66	-0,076060	
9,592000	0,66	-0,074620	
9,603000	0,66	-0,088630	
9,614000	0,66	-0,090490	
9,625000	0,66	-0,081280	
9,636000	0,66	-0,067710	
9,647000	0,66	-0,070590	
9,658000	0,66	-0,073780	
9,669000	0,66	-0,086340	
9,680000	0,66	-0,094820	
9,691000	0,66	-0,095820	
9,702000	0,66	-0,093740	
9,713000	0,66	-0,093590	
9,724000	0,66	-0,084390	
9,735000	0,66	-0,082740	
9,746000	0,66	-0,081550	
9,757000	0,66	-0,088920	
9,768000	0,66	-0,087580	
9,779000	0,66	-0,090150	
9,790000	0,66	-0,085850	
9,801000	0,66	-0,079270	
9,812000	0,66	-0,086400	
9,823000	0,66	-0,097820	
9,834000	0,66	-0,090870	
9,845000	0,66	-0,086300	
9,856000	0,66	-0,094790	
9,867000	0,66	-0,091560	
9,878000	0,66	-0,084570	
9,889000	0,66	-0,089540	
9,900000	0,66	-0,088510	
9,911000	0,66	-0,089380	
9,922000	0,66	-0,087570	
9,933000	0,66	-0,093550	
9,944000	0,66	-0,100000	
9,955000	0,66	-0,093610	
9,966000	0,66	-0,094750	
9,977000	0,66	-0,098180	
9,988000	0,66	-0,097200	
9,999000	0,66	-0,093850	
10,010000	0,66	-0,092450	
10,021000	0,66	-0,108950	
10,032000	0,66	-0,115600	
10,043000	0,66	-0,108150	
10,054000	0,66	-0,107040	
10,065000	0,66	-0,107450	
10,076000	0,66	-0,106850	
10,087000	0,66	-0,103990	
10,098000	0,66	-0,104990	
10,109000	0,66	-0,105810	
10,120000	0,66	-0,106700	
10,131000	0,66	-0,106390	
10,142000	0,66	-0,110500	
10,153000	0,66	-0,111040	
10,164000	0,66	-0,101220	
10,175000	0,66	-0,107490	
10,186000	0,66	-0,114630	
10,197000	0,66	-0,113550	
10,208000	0,66	-0,103080	
10,219000	0,66	-0,090610	
10,230000	0,66	-0,090670	
10,241000	0,66	-0,089590	
10,252000	0,66	-0,088200	
10,263000	0,66	-0,098740	
10,274000	0,66	-0,097740	
10,285000	0,66	-0,088800	
10,296000	0,66	-0,090990	
10,307000	0,66	-0,098920	
10,318000	0,66	-0,104200	
10,329000	0,66	-0,109060	
10,340000	0,66	-0,107900	
10,351000	0,66	-0,098180	
10,362000	0,66	-0,083950	
10,373000	0,66	-0,069600	
10,384000	0,66	-0,069890	
10,395000	0,66	-0,069560	
10,406000	0,66	-0,073480	
10,417000	0,66	-0,080370	
10,428000	0,66	-0,089240	
10,439000	0,66	-0,099770	
10,450000	0,66	-0,107020	
10,461000	0,66	-0,103330	
10,472000	0,66	-0,095440	
10,483000	0,66	-0,087700	
10,494000	0,66	-0,095740	
10,505000	0,66	-0,093730	
10,516000	0,66	-0,102720	
10,527000	0,66	-0,102590	
10,538000	0,66	-0,098030	
10,549000	0,66	-0,101820	
10,560000	0,66	-0,102420	
10,571000	0,66	-0,092110	
10,582000	0,66	-0,089840	
10,593000	0,66	-0,087710	
10,604000	0,66	-0,091690	
10,615000	0,66	-0,095470	
10,626000	0,66	-0,102650	
10,637000	0,66	-0,095250	
10,648000	0,66	-0,091950	
10,659000	0,66	-0,092340	
10,670000	0,66	-0,095870	
10,681000	0,66	-0,096160	
10,692000	0,66	-0,093080	
10,703000	0,66	-0,089940	
10,714000	0,66	-0,092400	
10,725000	0,66	-0,087980	
10,736000	0,66	-0,084370	
10,747000	0,66	-0,085080	
10,758000	0,66	-0,085470	
10,769000	0,66	-0,081710	
10,780000	0,66	-0,084430	
10,791000	0,66	-0,086080	
10,802000	0,66	-0,098060	
10,813000	0,66	-0,105900	
10,824000	0,66	-0,099250	
10,835000	0,66	-0,096200	
10,846000	0,66	-0,091990	
10,857000	0,66	-0,096490	
10,868000	0,66	-0,099170	
10,879000	0,66	-0,089000	
10,890000	0,66	-0,091400	
10,901000	0,66	-0,095770	
10,912000	0,66	-0,089840	
10,923000	0,66	-0,086590	
10,934000	0,66	-0,076910	
10,945000	0,66	-0,079390	
10,956000	0,66	-0,081690	
10,967000	0,66	-0,076640	
10,978000	0,66	-0,084110	
10,989000	0,66	-0,098520	
11,000000	0,66	-0,108210	
11,011000	0,66	-0,108200	
11,022000	0,66	-0,101350	
11,033000	0,66	-0,086920	
11,044000	0,66	-0,081950	
11,055000	0,66	-0,079090	
11,066000	0,66	-0,087060	
11,077000	0,66	-0,094540	
11,088000	0,66	-0,102350	
11,099000	0,66	-0,096490	
11,110000	0,66	-0,099730	
11,121000	0,66	-0,099760	
11,132000	0,66	-0,097320	
11,143000	0,66	-0,093300	
11,154000	0,66	-0,081300	
11,165000	0,66	-0,089800	
11,176000	0,66	-0,105160	
11,187000	0,66	-0,094900	
11,198000	0,66	-0,094140	
11,209000	0,66	-0,096890	
11,220000	0,66	-0,099110	
11,231000	0,66	-0,100010	
11,242000	0,66	-0,097250	
11,253000	0,66	-0,088700	
11,264000	0,66	-0,083780	
11,275000	0,66	-0,092030	
11,286000	0,66	-0,089630	
11,297000	0,66	-0,092210	
11,308000	0,66	-0,080640	
11,319000	0,66	-0,079890	
11,330000	0,66	-0,088140	
11,341000	0,66	-0,084890	
11,352000	0,66	-0,081910	
11,363000	0,66	-0,078350	
11,374000	0,66	-0,067170	
11,385000	0,66	-0,063110	
11,396000	0,66	-0,073230	
11,407000	0,66	-0,084980	
11,418000	0,66	-0,080540	
11,429000	0,66	-0,078040	
11,440000	0,66	-0,079580	
11,451000	0,66	-0,080360	
11,462000	0,66	-0,087490	
11,473000	0,66	-0,096510	
11,484000	0,66	-0,106800	
11,495000	0,66	-0,103770	
11,506000	0,66	-0,096240	
11,517000	0,66	-0,084030	
11,528000	0,66	-0,066320	
11,539000	0,66	-0,070100	
11,550000	0,66	-0,083580	
11,561000	0,66	-0,085620	
11,572000	0,66	-0,086210	
11,583000	0,66	-0,094470	
11,594000	0,66	-0,095560	
11,605000	0,66	-0,094610	
11,616000	0,66	-0,101230	
11,627000	0,66	-0,107430	
11,638000	0,66	-0,108400	
11,649000	0,66	-0,112830	
11,660000	0,66	-0,104170	
11,671000	0,66	-0,092800	
11,682000	0,66	-0,089250	
11,693000	0,66	-0,092640	
11,704000	0,66	-0,097430	
11,715000	0,66	-0,099750	
11,726000	0,66	-0,098510	
11,737000	0,66	-0,100360	
11,748000	0,66	-0,098020	
11,759000	0,66	-0,092230	
11,770000	0,66	-0,087250	
11,781000	0,66	-0,085000	
11,792000	0,66	-0,084290	
11,803000	0,66	-0,081760	
11,814000	0,66	-0,086150	
11,825000	0,66	-0,100200	
11,836000	0,66	-0,118910	
11,847000	0,66	-0,117740	
11,858000	0,66	-0,117050	
11,869000	0,66	-0,107270	
11,880000	0,66	-0,107960	
11,891000	0,66	-0,106220	
11,902000	0,66	-0,111120	
11,913000	0,66	-0,123320	
11,924000	0,66	-0,114010	
11,935000	0,66	-0,109950	
11,946000	0,66	-0,118410	
11,957000	0,66	-0,119680	
11,968000	0,66	-0,107120	
11,979000	0,66	-0,095730	
11,990000	0,66	-0,100870	
12,001000	0,66	-0,108730	
12,012000	0,66	-0,100920	
12,023000	0,66	-0,098220	
12,034000	0,66	-0,108110	
12,045000	0,66	-0,109520	
12,056000	0,66	-0,094450	
12,067000	0,66	-0,093960	
12,078000	0,66	-0,090240	
12,089000	0,66	-0,091470	
12,100000	0,66	-0,092330	
12,111000	0,66	-0,094100	
12,122000	0,66	-0,096730	
12,133000	0,66	-0,100550	
12,144000	0,66	-0,100960	
12,155000	0,66	-0,106380	
12,166000	0,66	-0,104760	
12,177000	0,66	-0,099940	
12,188000	0,66	-0,111480	
12,199000	0,66	-0,118930	
12,210000	0,66	-0,122840	
12,221000	0,66	-0,126460	
12,232000	0,66	-0,120400	
12,243000	0,66	-0,114800	
12,254000	0,66	-0,114530	
12,265000	0,66	-0,118530	
12,276000	0,66	-0,119620	
12,287000	0,66	-0,119840	
12,298000	0,66	-0,110970	
12,309000	0,66	-0,100360	
12,320000	0,66	-0,108380	
12,331000	0,66	-0,113970	
12,342000	0,66	-0,110900	
12,353000	0,66	-0,119800	
12,364000	0,66	-0,113090	
12,375000	0,66	-0,099970	
12,386000	0,66	-0,099970	
12,397000	0,66	-0,097380	
12,408000	0,66	-0,102270	
12,419000	0,66	-0,106840	
12,430000	0,66	-0,099020	
12,441000	0,66	-0,089170	
12,452000	0,66	-0,096040	
12,463000	0,66	-0,102510	
12,474000	0,66	-0,107520	
12,485000	0,66	-0,103430	
12,496000	0,66	-0,113790	
12,507000	0,66	-0,113620	
12,518000	0,66	-0,118070	
12,529000	0,66	-0,119120	
12,540000	0,66	-0,122380	
12,551000	0,66	-0,126300	
12,562000	0,66	-0,118910	
12,573000	0,66	-0,112940	
12,584000	0,66	-0,104320	
12,595000	0,66	-0,100410	
12,606000	0,66	-0,100440	
12,617000	0,66	-0,104520	
12,628000	0,66	-0,104030	
12,639000	0,66	-0,101730	
12,650000	0,66	-0,098370	
12,661000	0,66	-0,102990	
12,672000	0,66	-0,102010	
12,683000	0,66	-0,110420	
12,694000	0,66	-0,111540	
12,705000	0,66	-0,118260	
12,716000	0,66	-0,114620	
12,727000	0,66	-0,106600	
12,738000	0,66	-0,111890	
12,749000	0,66	-0,115580	
12,760000	0,66	-0,111420	
12,771000	0,66	-0,103820	
12,782000	0,66	-0,108510	
12,793000	0,66	-0,115310	
12,804000	0,66	-0,126620	
12,815000	0,66	-0,128840	
12,826000	0,66	-0,116550	
12,837000	0,66	-0,110990	
12,848000	0,66	-0,118130	
12,859000	0,66	-0,121710	
12,870000	0,66	-0,114530	
12,881000	0,66	-0,107290	
12,892000	0,66	-0,103760	
12,903000	0,66	-0,102810	
12,914000	0,66	-0,104160	
12,925000	0,66	-0,101730	
12,936000	0,66	-0,093590	
12,947000	0,66	-0,097400	
12,958000	0,66	-0,099430	
12,969000	0,66	-0,084170	
12,980000	0,66	-0,077870	
12,991000	0,66	-0,083850	
13,002000	0,66	-0,093160	
13,013000	0,66	-0,089920	
13,024000	0,66	-0,090630	
13,035000	0,66	-0,091110	
13,046000	0,66	-0,102730	
13,057000	0,66	-0,112150	
13,068000	0,66	-0,103410	
13,079000	0,66	-0,095500	
13,090000	0,66	-0,095980	
13,101000	0,66	-0,104850	
13,112000	0,66	-0,119520	
13,123000	0,66	-0,111850	
13,134000	0,66	-0,120010	
13,145000	0,66	-0,122690	
13,156000	0,66	-0,115330	
13,167000	0,66	-0,110690	
13,178000	0,66	-0,115810	
13,189000	0,66	-0,104450	
13,200000	0,66	-0,103640	
13,211000	0,66	-0,106010	
13,222000	0,66	-0,113770	
13,233000	0,66	-0,110710	
13,244000	0,66	-0,108380	
13,255000	0,66	-0,109920	
13,266000	0,66	-0,104340	
13,277000	0,66	-0,108940	
13,288000	0,66	-0,102890	
13,299000	0,66	-0,096440	
13,310000	0,66	-0,106750	
13,321000	0,66	-0,119230	
13,332000	0,66	-0,119170	
13,343000	0,66	-0,099710	
13,354000	0,66	-0,090860	
13,365000	0,66	-0,095780	
13,376000	0,66	-0,101200	
13,387000	0,66	-0,103140	
13,398000	0,66	-0,107030	
13,409000	0,66	-0,103410	
13,420000	0,66	-0,114610	
13,431000	0,66	-0,114920	
13,442000	0,66	-0,107650	
13,453000	0,66	-0,104200	
13,464000	0,66	-0,101530	
13,475000	0,66	-0,113600	
13,486000	0,66	-0,113660	
13,497000	0,66	-0,106330	
13,508000	0,66	-0,112670	
13,519000	0,66	-0,115820	
13,530000	0,66	-0,104650	
13,541000	0,66	-0,099170	
13,552000	0,66	-0,102680	
13,563000	0,66	-0,111680	
13,574000	0,66	-0,115040	
13,585000	0,66	-0,109430	
13,596000	0,66	-0,100530	
13,607000	0,66	-0,103410	
13,618000	0,66	-0,111860	
13,629000	0,66	-0,106790	
13,640000	0,66	-0,104040	
13,651000	0,66	-0,103810	
13,662000	0,66	-0,104260	
13,673000	0,66	-0,107780	
13,684000	0,66	-0,106880	
13,695000	0,66	-0,115360	
13,706000	0,66	-0,118600	
13,717000	0,66	-0,113260	
13,728000	0,66	-0,113770	
13,739000	0,66	-0,108510	
13,750000	0,66	-0,099670	
13,761000	0,66	-0,099760	
13,772000	0,66	-0,111250	
13,783000	0,66	-0,118250	
13,794000	0,66	-0,102200	
13,805000	0,66	-0,094610	
13,816000	0,66	-0,104750	
13,827000	0,66	-0,106800	
13,838000	0,66	-0,115390	
13,849000	0,66	-0,109890	
13,860000	0,66	-0,116300	
13,871000	0,66	-0,114900	
13,882000	0,66	-0,118220	
13,893000	0,66	-0,121070	
13,904000	0,66	-0,112070	
13,915000	0,66	-0,113390	
13,926000	0,66	-0,104420	
13,937000	0,66	-0,103700	
13,948000	0,66	-0,108760	
13,959000	0,66	-0,119510	
13,970000	0,66	-0,118670	
13,981000	0,66	-0,106870	
13,992000	0,66	-0,113170	
14,003000	0,66	-0,125850	
14,014000	0,66	-0,119980	
14,025000	0,66	-0,115690	
14,036000	0,66	-0,109880	
14,047000	0,66	-0,113680	
14,058000	0,66	-0,122230	
14,069000	0,66	-0,126400	
14,080000	0,66	-0,124630	
14,091000	0,66	-0,133290	
14,102000	0,66	-0,125570	
14,113000	0,66	-0,126260	
14,124000	0,66	-0,124140	
14,135000	0,66	-0,124580	
14,146000	0,66	-0,120190	
14,157000	0,66	-0,124470	
14,168000	0,66	-0,127950	
14,179000	0,66	-0,122540	
14,190000	0,66	-0,121830	
14,201000	0,66	-0,120030	
14,212000	0,66	-0,118430	
14,223000	0,66	-0,110440	
14,234000	0,66	-0,100680	
14,245000	0,66	-0,103050	
14,256000	0,66	-0,113820	
14,267000	0,66	-0,116480	
14,278000	0,66	-0,124900	
14,289000	0,66	-0,127970	
14,300000	0,66	-0,117840	
14,311000	0,66	-0,114830	
14,322000	0,66	-0,117780	
14,333000	0,66	-0,115400	
14,344000	0,66	-0,112560	
14,355000	0,66	-0,114100	
14,366000	0,66	-0,109250	
14,377000	0,66	-0,100410	
14,388000	0,66	-0,101900	
14,399000	0,66	-0,119040	
14,410000	0,66	-0,125940	
14,421000	0,66	-0,117990	
14,432000	0,66	-0,110700	
14,443000	0,66	-0,106710	
14,454000	0,66	-0,109530	
14,465000	0,66	-0,112080	
14,476000	0,66	-0,103970	
14,487000	0,66	-0,107460	
14,498000	0,66	-0,113940	
14,509000	0,66	-0,117690	
14,520000	0,66	-0,118960	
14,531000	0,66	-0,116700	
14,542000	0,66	-0,116910	
14,553000	0,66	-0,122020	
14,564000	0,66	-0,125600	
14,575000	0,66	-0,132840	
14,586000	0,66	-0,136790	
14,597000	0,66	-0,118170	
14,608000	0,66	-0,102550	
14,619000	0,66	-0,104920	
14,630000	0,66	-0,107910	
14,641000	0,66	-0,107150	
14,652000	0,66	-0,113710	
14,663000	0,66	-0,123430	
14,674000	0,66	-0,131800	
14,685000	0,66	-0,138000	
14,696000	0,66	-0,129250	
14,707000	0,66	-0,106600	
14,718000	0,66	-0,099980	
14,729000	0,66	-0,104900	
14,740000	0,66	-0,104170	
14,751000	0,66	-0,102830	
14,762000	0,66	-0,105660	
14,773000	0,66	-0,105850	
14,784000	0,66	-0,108140	
14,795000	0,66	-0,109200	
14,806000	0,66	-0,108560	
14,817000	0,66	-0,108460	
14,828000	0,66	-0,104150	
14,839000	0,66	-0,108080	
14,850000	0,66	-0,108360	
14,861000	0,66	-0,114260	
14,872000	0,66	-0,124010	
14,883000	0,66	-0,125210	
14,894000	0,66	-0,120040	
14,905000	0,66	-0,124010	
14,916000	0,66	-0,130160	
14,927000	0,66	-0,135640	
14,938000	0,66	-0,139160	
14,949000	0,66	-0,133080	
14,960000	0,66	-0,126160	
14,971000	0,66	-0,125520	
14,982000	0,66	-0,128480	
14,993000	0,66	-0,131090	
15,004000	0,66	-0,133510	
15,015000	0,66	-0,127030	
15,026000	0,66	-0,123670	
15,037000	0,66	-0,126890	
15,048000	0,66	-0,122140	
15,059000	0,66	-0,122890	
15,070000	0,66	-0,129600	
15,081000	0,66	-0,144380	
15,092000	0,66	-0,149380	
15,103000	0,66	-0,141000	
15,114000	0,66	-0,135350	
15,125000	0,66	-0,135320	
15,136000	0,66	-0,127060	
15,147000	0,66	-0,118420	
15,158000	0,66	-0,122420	
15,169000	0,66	-0,128620	
15,180000	0,66	-0,131140	
15,191000	0,66	-0,133810	
15,202000	0,66	-0,134300	
15,213000	0,66	-0,129610	
15,224000	0,66	-0,138830	
15,235000	0,66	-0,142170	
15,246000	0,66	-0,143100	
15,257000	0,66	-0,121010	
15,268000	0,66	-0,124680	
15,279000	0,66	-0,125100	
15,290000	0,66	-0,123190	
15,301000	0,66	-0,133230	
15,312000	0,66	-0,133600	
15,323000	0,66	-0,138140	
15,334000	0,66	-0,132050	
15,345000	0,66	-0,126170	
15,356000	0,66	-0,129240	
15,367000	0,66	-0,140260	
15,378000	0,66	-0,129020	
15,389000	0,66	-0,131480	
15,400000	0,66	-0,126340	
15,411000	0,66	-0,133060	
15,422000	0,66	-0,130420	
15,433000	0,66	-0,125930	
15,444000	0,66	-0,114970	
15,455000	0,66	-0,110580	
15,466000	0,66	-0,116830	
15,477000	0,66	-0,122950	
15,488000	0,66	-0,124210	
15,499000	0,66	-0,114990	
15,510000	0,66	-0,112620	
15,521000	0,66	-0,119950	
15,532000	0,66	-0,132260	
15,543000	0,66	-0,136240	
15,554000	0,66	-0,142000	
15,565000	0,66	-0,141460	
15,576000	0,66	-0,134930	
15,587000	0,66	-0,119650	
15,598000	0,66	-0,121380	
15,609000	0,66	-0,120880	
15,620000	0,66	-0,124510	
15,631000	0,66	-0,131080	
15,642000	0,66	-0,123940	
15,653000	0,66	-0,117500	
15,664000	0,66	-0,121110	
15,675000	0,66	-0,122300	
15,686000	0,66	-0,125470	
15,697000	0,66	-0,130540	
15,708000	0,66	-0,136220	
15,719000	0,66	-0,137780	
15,730000	0,66	-0,140230	
15,741000	0,66	-0,144020	
15,752000	0,66	-0,139470	
15,763000	0,66	-0,133500	
15,774000	0,66	-0,123450	
15,785000	0,66	-0,120180	
15,796000	0,66	-0,112700	
15,807000	0,66	-0,105470	
15,818000	0,66	-0,110770	
15,829000	0,66	-0,119860	
15,840000	0,66	-0,123310	
15,851000	0,66	-0,121890	
15,862000	0,66	-0,105900	
15,873000	0,66	-0,113910	
15,884000	0,66	-0,129720	
15,895000	0,66	-0,129520	
15,906000	0,66	-0,122510	
15,917000	0,66	-0,116490	
15,928000	0,66	-0,114000	
15,939000	0,66	-0,116920	
15,950000	0,66	-0,127730	
15,961000	0,66	-0,138830	
15,972000	0,66	-0,132640	
15,983000	0,66	-0,138840	
15,994000	0,66	-0,129780	
16,005000	0,66	-0,131840	
16,016000	0,66	-0,127740	
16,027000	0,66	-0,123300	
16,038000	0,66	-0,119890	
16,049000	0,66	-0,124500	
16,060000	0,66	-0,126460	
16,071000	0,66	-0,134190	
16,082000	0,66	-0,137190	
16,093000	0,66	-0,137820	
16,104000	0,66	-0,131350	
16,115000	0,66	-0,135590	
16,126000	0,66	-0,134350	
16,137000	0,66	-0,125490	
16,148000	0,66	-0,114760	
16,159000	0,66	-0,112060	
16,170000	0,66	-0,114700	
16,181000	0,66	-0,112200	
16,192000	0,66	-0,111990	
16,203000	0,66	-0,106330	
16,214000	0,66	-0,110090	
16,225000	0,66	-0,116220	
16,236000	0,66	-0,122390	
16,247000	0,66	-0,133400	
16,258000	0,66	-0,131700	
16,269000	0,66	-0,123500	
16,280000	0,66	-0,128630	
16,291000	0,66	-0,139660	
16,302000	0,66	-0,147750	
16,313000	0,66	-0,140210	
16,324000	0,66	-0,131130	
16,335000	0,66	-0,133310	
16,346000	0,66	-0,138800	
16,357000	0,66	-0,133860	
16,368000	0,66	-0,127250	
16,379000	0,66	-0,127960	
16,390000	0,66	-0,129510	
16,401000	0,66	-0,132520	
16,412000	0,66	-0,137650	
16,423000	0,66	-0,128630	
16,434000	0,66	-0,115720	
16,445000	0,66	-0,123680	
16,456000	0,66	-0,132250	
16,467000	0,66	-0,131840	
16,478000	0,66	-0,132570	
16,489000	0,66	-0,136090	
16,500000	0,66	-0,136460	
16,511000	0,66	-0,128970	
16,522000	0,66	-0,125120	
16,533000	0,66	-0,127190	
16,544000	0,66	-0,141100	
16,555000	0,66	-0,150640	
16,566000	0,66	-0,141040	
16,577000	0,66	-0,127860	
16,588000	0,66	-0,115090	
16,599000	0,66	-0,119410	
16,610000	0,66	-0,121220	
16,621000	0,66	-0,125930	
16,632000	0,66	-0,131550	
16,643000	0,66	-0,138350	
16,654000	0,66	-0,135940	
16,665000	0,66	-0,129250	
16,676000	0,66	-0,124310	
16,687000	0,66	-0,139450	
16,698000	0,66	-0,142540	
16,709000	0,66	-0,131720	
16,720000	0,66	-0,143760	
16,731000	0,66	-0,151200	
16,742000	0,66	-0,154640	
16,753000	0,66	-0,176110	
16,764000	0,66	-0,161340	
16,775000	0,66	-0,150950	
16,786000	0,66	-0,150570	
16,797000	0,66	-0,148790	
16,808000	0,66	-0,141700	
16,819000	0,66	-0,146350	
16,830000	0,66	-0,145290	
16,841000	0,66	-0,145310	
16,852000	0,66	-0,146270	
16,863000	0,66	-0,150400	
16,874000	0,66	-0,150300	
16,885000	0,66	-0,148360	
16,896000	0,66	-0,140370	
16,907000	0,66	-0,136760	
16,918000	0,66	-0,143430	
16,929000	0,66	-0,142480	
16,940000	0,66	-0,137900	
16,951000	0,66	-0,140690	
16,962000	0,66	-0,138530	
16,973000	0,66	-0,134540	
16,984000	0,66	-0,131870	
16,995000	0,66	-0,135480	
17,006000	0,66	-0,138880	
17,017000	0,66	-0,138140	
17,028000	0,66	-0,139450	
17,039000	0,66	-0,140580	
17,050000	0,66	-0,141290	
17,061000	0,66	-0,143960	
17,072000	0,66	-0,143910	
17,083000	0,66	-0,149310	
17,094000	0,66	-0,157330	
17,105000	0,66	-0,158820	
17,116000	0,66	-0,158720	
17,127000	0,66	-0,157750	
17,138000	0,66	-0,154060	
17,149000	0,66	-0,151560	
17,160000	0,66	-0,153210	
17,171000	0,66	-0,151740	
17,182000	0,66	-0,147730	
17,193000	0,66	-0,152480	
17,204000	0,66	-0,157900	
17,215000	0,66	-0,150330	
17,226000	0,66	-0,145380	
17,237000	0,66	-0,145710	
17,248000	0,66	-0,146970	
17,259000	0,66	-0,155380	
17,270000	0,66	-0,154440	
17,281000	0,66	-0,157340	
17,292000	0,66	-0,167350	
17,303000	0,66	-0,171680	
17,314000	0,66	-0,168250	
17,325000	0,66	-0,162850	
17,336000	0,66	-0,167570	
17,347000	0,66	-0,171620	
17,358000	0,66	-0,153200	
17,369000	0,66	-0,145110	
17,380000	0,66	-0,153770	
17,391000	0,66	-0,158960	
17,402000	0,66	-0,156160	
17,413000	0,66	-0,145670	
17,424000	0,66	-0,140500	
17,435000	0,66	-0,137100	
17,446000	0,66	-0,143730	
17,457000	0,66	-0,150720	
17,468000	0,66	-0,159910	
17,479000	0,66	-0,151890	
17,490000	0,66	-0,151120	
17,501000	0,66	-0,144650	
17,512000	0,66	-0,137030	
17,523000	0,66	-0,133010	
17,534000	0,66	-0,118930	
17,545000	0,66	-0,128190	
17,556000	0,66	-0,134460	
17,567000	0,66	-0,152340	
17,578000	0,66	-0,160540	
17,589000	0,66	-0,150620	
17,600000	0,66	-0,139410	
17,611000	0,66	-0,143490	
17,622000	0,66	-0,148150	
17,633000	0,66	-0,147590	
17,644000	0,66	-0,145670	
17,655000	0,66	-0,145930	
17,666000	0,66	-0,130220	
17,677000	0,66	-0,126880	
17,688000	0,66	-0,134100	
17,699000	0,66	-0,137770	
17,710000	0,66	-0,142380	
17,721000	0,66	-0,144610	
17,732000	0,66	-0,135130	
17,743000	0,66	-0,129570	
17,754000	0,66	-0,142930	
17,765000	0,66	-0,153730	
17,776000	0,66	-0,153010	
17,787000	0,66	-0,151230	
17,798000	0,66	-0,141060	
17,809000	0,66	-0,130400	
17,820000	0,66	-0,124900	
17,831000	0,66	-0,127110	
17,842000	0,66	-0,138880	
17,853000	0,66	-0,140490	
17,864000	0,66	-0,136000	
17,875000	0,66	-0,127680	
17,886000	0,66	-0,119060	
17,897000	0,66	-0,117540	
17,908000	0,66	-0,124050	
17,919000	0,66	-0,123290	
17,930000	0,66	-0,117930	
17,941000	0,66	-0,120490	
17,952000	0,66	-0,128020	
17,963000	0,66	-0,138250	
17,974000	0,66	-0,134190	
17,985000	0,66	-0,127570	
17,996000	0,66	-0,135830	
18,007000	0,66	-0,146080	
18,018000	0,66	-0,143150	
18,029000	0,66	-0,132060	
18,040000	0,66	-0,129950	
18,051000	0,66	-0,143120	
18,062000	0,66	-0,146840	
18,073000	0,66	-0,155390	
18,084000	0,66	-0,154210	
18,095000	0,66	-0,153270	
18,106000	0,66	-0,151260	
18,117000	0,66	-0,149570	
18,128000	0,66	-0,119900	
18,139000	0,66	-0,101830	
18,150000	0,66	-0,103240	
18,161000	0,66	-0,107620	
18,172000	0,66	-0,118540	
18,183000	0,66	-0,126750	
18,194000	0,66	-0,133910	
18,205000	0,66	-0,147260	
18,216000	0,66	-0,154110	
18,227000	0,66	-0,154280	
18,238000	0,66	-0,147200	
18,249000	0,66	-0,143930	
18,260000	0,66	-0,140190	
18,271000	0,66	-0,145150	
18,282000	0,66	-0,152410	
18,293000	0,66	-0,145890	
18,304000	0,66	-0,143910	
18,315000	0,66	-0,139140	
18,326000	0,66	-0,149000	
18,337000	0,66	-0,168340	
18,348000	0,66	-0,169080	
18,359000	0,66	-0,161720	
18,370000	0,66	-0,159940	
18,381000	0,66	-0,155610	
18,392000	0,66	-0,152340	
18,403000	0,66	-0,151150	
18,414000	0,66	-0,155300	
18,425000	0,66	-0,147590	
18,436000	0,66	-0,138600	
18,447000	0,66	-0,131390	
18,458000	0,66	-0,121990	
18,469000	0,66	-0,124110	
18,480000	0,66	-0,136660	
18,491000	0,66	-0,140430	
18,502000	0,66	-0,137720	
18,513000	0,66	-0,135340	
18,524000	0,66	-0,133060	
18,535000	0,66	-0,140320	
18,546000	0,66	-0,143000	
18,557000	0,66	-0,141640	
18,568000	0,66	-0,145770	
18,579000	0,66	-0,148020	
18,590000	0,66	-0,160310	
18,601000	0,66	-0,157800	
18,612000	0,66	-0,149880	
18,623000	0,66	-0,136410	
18,634000	0,66	-0,136180	
18,645000	0,66	-0,139180	
18,656000	0,66	-0,147530	
18,667000	0,66	-0,150230	
18,678000	0,66	-0,146950	
18,689000	0,66	-0,154420	
18,700000	0,66	-0,151650	
18,711000	0,66	-0,154760	
18,722000	0,66	-0,163620	
18,733000	0,66	-0,165060	
18,744000	0,66	-0,163420	
18,755000	0,66	-0,155260	
18,766000	0,66	-0,150420	
18,777000	0,66	-0,152170	
18,788000	0,66	-0,152860	
18,799000	0,66	-0,139410	
18,810000	0,66	-0,136880	
18,821000	0,66	-0,129150	
18,832000	0,66	-0,129500	
18,843000	0,66	-0,135470	
18,854000	0,66	-0,141820	
18,865000	0,66	-0,134570	
18,876000	0,66	-0,137060	
18,887000	0,66	-0,128150	
18,898000	0,66	-0,137420	
18,909000	0,66	-0,137610	
18,920000	0,66	-0,130320	
18,931000	0,66	-0,135240	
18,942000	0,66	-0,151170	
18,953000	0,66	-0,153060	
18,964000	0,66	-0,147500	
18,975000	0,66	-0,143550	
18,986000	0,66	-0,150410	
18,997000	0,66	-0,146820	
19,008000	0,66	-0,149230	
19,019000	0,66	-0,151140	
19,030000	0,66	-0,148130	
19,041000	0,66	-0,152390	
19,052000	0,66	-0,148150	
19,063000	0,66	-0,146490	
19,074000	0,66	-0,155390	
19,085000	0,66	-0,160350	
19,096000	0,66	-0,157910	
19,107000	0,66	-0,142950	
19,118000	0,66	-0,132310	
19,129000	0,66	-0,140360	
19,140000	0,66	-0,146640	
19,151000	0,66	-0,151890	
19,162000	0,66	-0,157380	
19,173000	0,66	-0,153280	
19,184000	0,66	-0,147200	
19,195000	0,66	-0,154240	
19,206000	0,66	-0,164970	
19,217000	0,66	-0,163810	
19,228000	0,66	-0,162590	
19,239000	0,66	-0,166330	
19,250000	0,66	-0,161380	
19,261000	0,66	-0,151060	
19,272000	0,66	-0,143010	
19,283000	0,66	-0,139850	
19,294000	0,66	-0,145670	
19,305000	0,66	-0,155990	
19,316000	0,66	-0,165140	
19,327000	0,66	-0,155490	
19,338000	0,66	-0,147300	
19,349000	0,66	-0,145110	
19,360000	0,66	-0,142800	
19,371000	0,66	-0,138720	
19,382000	0,66	-0,133860	
19,393000	0,66	-0,138720	
19,404000	0,66	-0,141690	
19,415000	0,66	-0,134940	
19,426000	0,66	-0,132170	
19,437000	0,66	-0,142940	
19,448000	0,66	-0,146800	
19,459000	0,66	-0,148450	
19,470000	0,66	-0,153830	
19,481000	0,66	-0,145820	
19,492000	0,66	-0,147190	
19,503000	0,66	-0,133600	
19,514000	0,66	-0,142100	
19,525000	0,66	-0,145450	
19,536000	0,66	-0,133080	
19,547000	0,66	-0,130870	
19,558000	0,66	-0,147320	
19,569000	0,66	-0,157430	
19,580000	0,66	-0,151450	
19,591000	0,66	-0,146560	
19,602000	0,66	-0,155280	
19,613000	0,66	-0,157750	
19,624000	0,66	-0,161440	
19,635000	0,66	-0,161950	
19,646000	0,66	-0,163660	
19,657000	0,66	-0,165450	
19,668000	0,66	-0,156800	
19,679000	0,66	-0,149910	
19,690000	0,66	-0,148090	
19,701000	0,66	-0,157210	
19,712000	0,66	-0,157830	
19,723000	0,66	-0,148850	
19,734000	0,66	-0,159000	
19,745000	0,66	-0,177220	
19,756000	0,66	-0,172270	
19,767000	0,66	-0,163680	
19,778000	0,66	-0,153730	
19,789000	0,66	-0,147610	
19,800000	0,66	-0,138740	
19,811000	0,66	-0,148920	
19,822000	0,66	-0,143850	
19,833000	0,66	-0,142410	
19,844000	0,66	-0,149720	
19,855000	0,66	-0,142570	
19,866000	0,66	-0,130450	
19,877000	0,66	-0,127450	
19,888000	0,66	-0,140310	
19,899000	0,66	-0,149010	
19,910000	0,66	-0,142900	
19,921000	0,66	-0,135080	
19,932000	0,66	-0,134830	
19,943000	0,66	-0,145860	
19,954000	0,66	-0,153580	
19,965000	0,66	-0,158850	
19,976000	0,66	-0,170220	
19,987000	0,66	-0,174380	
19,998000	0,66	-0,173530	
20,009000	0,66	-0,164670	
20,020000	0,66	-0,157050	
20,031000	0,66	-0,148740	
20,042000	0,66	-0,135940	
20,053000	0,66	-0,136020	
20,064000	0,66	-0,138540	
20,075000	0,66	-0,145540	
20,086000	0,66	-0,151950	
20,097000	0,66	-0,145570	
20,108000	0,66	-0,138630	
20,119000	0,66	-0,135690	
20,130000	0,66	-0,147110	
20,141000	0,66	-0,147600	
20,152000	0,66	-0,154270	
20,163000	0,66	-0,148880	
20,174000	0,66	-0,154630	
20,185000	0,66	-0,156680	
20,196000	0,66	-0,160520	
20,207000	0,66	-0,161140	
20,218000	0,66	-0,168120	
20,229000	0,66	-0,177950	
20,240000	0,66	-0,168470	
20,251000	0,66	-0,153900	
20,262000	0,66	-0,150430	
20,273000	0,66	-0,151310	
20,284000	0,66	-0,147820	
20,295000	0,66	-0,147060	
20,306000	0,66	-0,147140	
20,317000	0,66	-0,141820	
20,328000	0,66	-0,141720	
20,339000	0,66	-0,146710	
20,350000	0,66	-0,148480	
20,361000	0,66	-0,157580	
20,372000	0,66	-0,164940	
20,383000	0,66	-0,167720	
20,394000	0,66	-0,162950	
20,405000	0,66	-0,154590	
20,416000	0,66	-0,152570	
20,427000	0,66	-0,156640	
20,438000	0,66	-0,153380	
20,449000	0,66	-0,148840	
20,460000	0,66	-0,152530	
20,471000	0,66	-0,152960	
20,482000	0,66	-0,156900	
20,493000	0,66	-0,154670	
20,504000	0,66	-0,161380	
20,515000	0,66	-0,161610	
20,526000	0,66	-0,151800	
20,537000	0,66	-0,149190	
20,548000	0,66	-0,150330	
20,559000	0,66	-0,155800	
20,570000	0,66	-0,156620	
20,581000	0,66	-0,150270	
20,592000	0,66	-0,160640	
20,603000	0,66	-0,174560	
20,614000	0,66	-0,159690	
20,625000	0,66	-0,155010	
20,636000	0,66	-0,170450	
20,647000	0,66	-0,164670	
20,658000	0,66	-0,152340	
20,669000	0,66	-0,145310	
20,680000	0,66	-0,144890	
20,691000	0,66	-0,148350	
20,702000	0,66	-0,152800	
20,713000	0,66	-0,154430	
20,724000	0,66	-0,156520	
20,735000	0,66	-0,153930	
20,746000	0,66	-0,135690	
20,757000	0,66	-0,129690	
20,768000	0,66	-0,134730	
20,779000	0,66	-0,140970	
20,790000	0,66	-0,143410	
20,801000	0,66	-0,151580	
20,812000	0,66	-0,158000	
20,823000	0,66	-0,166200	
20,834000	0,66	-0,159550	
20,845000	0,66	-0,172430	
20,856000	0,66	-0,174350	
20,867000	0,66	-0,173480	
20,878000	0,66	-0,171260	
20,889000	0,66	-0,161910	
20,900000	0,66	-0,162170	
20,911000	0,66	-0,161230	
20,922000	0,66	-0,154810	
20,933000	0,66	-0,152970	
20,944000	0,66	-0,159380	
20,955000	0,66	-0,160780	
20,966000	0,66	-0,159850	
20,977000	0,66	-0,152760	
20,988000	0,66	-0,146000	
20,999000	0,66	-0,158890	
21,010000	0,66	-0,149120	
21,021000	0,66	-0,140140	
21,032000	0,66	-0,140360	
21,043000	0,66	-0,145880	
21,054000	0,66	-0,160090	
21,065000	0,66	-0,165670	
21,076000	0,66	-0,158840	
21,087000	0,66	-0,155810	
21,098000	0,66	-0,151370	
21,109000	0,66	-0,152550	
21,120000	0,66	-0,140880	
21,131000	0,66	-0,132680	
21,142000	0,66	-0,138950	
21,153000	0,66	-0,160360	
21,164000	0,66	-0,159330	
21,175000	0,66	-0,143400	
21,186000	0,66	-0,127280	
21,197000	0,66	-0,124540	
21,208000	0,66	-0,126030	
21,219000	0,66	-0,130210	
21,230000	0,66	-0,136510	
21,241000	0,66	-0,131950	
21,252000	0,66	-0,127950	
21,263000	0,66	-0,132840	
21,274000	0,66	-0,138260	
21,285000	0,66	-0,142480	
21,296000	0,66	-0,144640	
21,307000	0,66	-0,143260	
21,318000	0,66	-0,143510	
21,329000	0,66	-0,143170	
21,340000	0,66	-0,132910	
21,351000	0,66	-0,127400	
21,362000	0,66	-0,133380	
21,373000	0,66	-0,137220	
21,384000	0,66	-0,143730	
21,395000	0,66	-0,143610	
21,406000	0,66	-0,136600	
21,417000	0,66	-0,138850	
21,428000	0,66	-0,142610	
21,439000	0,66	-0,133610	
21,450000	0,66	-0,132690	
21,461000	0,66	-0,143600	
21,472000	0,66	-0,150470	
21,483000	0,66	-0,150050	
21,494000	0,66	-0,144500	
21,505000	0,66	-0,144720	
21,516000	0,66	-0,142760	
21,527000	0,66	-0,150470	
21,538000	0,66	-0,147180	
21,549000	0,66	-0,145130	
21,560000	0,66	-0,145370	
21,571000	0,66	-0,140870	
21,582000	0,66	-0,147310	
21,593000	0,66	-0,149790	
21,604000	0,66	-0,157860	
21,615000	0,66	-0,159260	
21,626000	0,66	-0,154970	
21,637000	0,66	-0,145020	
21,648000	0,66	-0,150160	
21,659000	0,66	-0,142910	
21,670000	0,66	-0,134720	
21,681000	0,66	-0,144210	
21,692000	0,66	-0,143250	
21,703000	0,66	-0,134540	
21,714000	0,66	-0,127900	
21,725000	0,66	-0,144550	
21,736000	0,66	-0,151510	
21,747000	0,66	-0,153250	
21,758000	0,66	-0,147650	
21,769000	0,66	-0,140280	
21,780000	0,66	-0,153720	
21,791000	0,66	-0,150130	
21,802000	0,66	-0,157870	
21,813000	0,66	-0,158080	
21,824000	0,66	-0,162120	
21,835000	0,66	-0,164880	
21,846000	0,66	-0,166960	
21,857000	0,66	-0,169100	
21,868000	0,66	-0,172440	
21,879000	0,66	-0,164700	
21,890000	0,66	-0,158590	
21,901000	0,66	-0,153370	
21,912000	0,66	-0,154020	
21,923000	0,66	-0,156120	
21,934000	0,66	-0,163520	
21,945000	0,66	-0,169100	
21,956000	0,66	-0,167190	
21,967000	0,66	-0,161860	
21,978000	0,66	-0,148820	
21,989000	0,66	-0,145110	
22,000000	0,66	-0,154090	
22,011000	0,66	-0,166500	
22,022000	0,66	-0,172370	
22,033000	0,66	-0,163260	
22,044000	0,66	-0,160700	
22,055000	0,66	-0,161640	
22,066000	0,66	-0,162390	
22,077000	0,66	-0,169920	
22,088000	0,66	-0,167910	
22,099000	0,66	-0,157860	
22,110000	0,66	-0,151380	
22,121000	0,66	-0,154310	
22,132000	0,66	-0,158320	
22,143000	0,66	-0,160640	
22,154000	0,66	-0,160640	
22,165000	0,66	-0,156060	
22,176000	0,66	-0,150890	
22,187000	0,66	-0,148620	
22,198000	0,66	-0,145760	
22,209000	0,66	-0,145560	
22,220000	0,66	-0,161360	
22,231000	0,66	-0,160230	
22,242000	0,66	-0,160680	
22,253000	0,66	-0,161670	
22,264000	0,66	-0,161600	
22,275000	0,66	-0,165360	
22,286000	0,66	-0,170970	
22,297000	0,66	-0,167160	
22,308000	0,66	-0,166290	
22,319000	0,66	-0,173360	
22,330000	0,66	-0,173770	
22,341000	0,66	-0,167110	
22,352000	0,66	-0,170220	
22,363000	0,66	-0,185170	
22,374000	0,66	-0,188620	
22,385000	0,66	-0,179160	
22,396000	0,66	-0,164930	
22,407000	0,66	-0,163470	
22,418000	0,66	-0,152160	
22,429000	0,66	-0,159460	
22,440000	0,66	-0,162290	
22,451000	0,66	-0,164690	
22,462000	0,66	-0,158830	
22,473000	0,66	-0,149260	
22,484000	0,66	-0,159670	
22,495000	0,66	-0,171970	
22,506000	0,66	-0,178920	
22,517000	0,66	-0,195270	
22,528000	0,66	-0,183090	
22,539000	0,66	-0,168120	
22,550000	0,66	-0,156840	
22,561000	0,66	-0,151280	
22,572000	0,66	-0,153600	
22,583000	0,66	-0,165830	
22,594000	0,66	-0,174610	
22,605000	0,66	-0,169840	
22,616000	0,66	-0,161720	
22,627000	0,66	-0,161720	
22,638000	0,66	-0,162270	
22,649000	0,66	-0,157970	
22,660000	0,66	-0,155630	
22,671000	0,66	-0,158120	
22,682000	0,66	-0,163680	
22,693000	0,66	-0,163560	
22,704000	0,66	-0,157670	
22,715000	0,66	-0,165070	
22,726000	0,66	-0,170560	
22,737000	0,66	-0,161420	
22,748000	0,66	-0,164720	
22,759000	0,66	-0,168830	
22,770000	0,66	-0,166630	
22,781000	0,66	-0,159880	
22,792000	0,66	-0,154220	
22,803000	0,66	-0,151610	
22,814000	0,66	-0,148930	
22,825000	0,66	-0,148870	
22,836000	0,66	-0,137500	
22,847000	0,66	-0,143750	
22,858000	0,66	-0,144320	
22,869000	0,66	-0,146380	
22,880000	0,66	-0,136440	
22,891000	0,66	-0,130310	
22,902000	0,66	-0,138580	
22,913000	0,66	-0,146020	
22,924000	0,66	-0,149290	
22,935000	0,66	-0,150260	
22,946000	0,66	-0,151570	
22,957000	0,66	-0,151250	
22,968000	0,66	-0,157560	
22,979000	0,66	-0,149140	
22,990000	0,66	-0,156510	
23,001000	0,66	-0,154820	
23,012000	0,66	-0,150510	
23,023000	0,66	-0,150960	
23,034000	0,66	-0,145340	
23,045000	0,66	-0,156700	
23,056000	0,66	-0,174270	
23,067000	0,66	-0,174660	
23,078000	0,66	-0,169820	
23,089000	0,66	-0,176130	
23,100000	0,66	-0,179460	
23,111000	0,66	-0,177940	
23,122000	0,66	-0,178860	
23,133000	0,66	-0,177120	
23,144000	0,66	-0,174070	
23,155000	0,66	-0,185780	
23,166000	0,66	-0,170090	
23,177000	0,66	-0,175800	
23,188000	0,66	-0,177470	
23,199000	0,66	-0,173270	
23,210000	0,66	-0,165690	
23,221000	0,66	-0,162360	
23,232000	0,66	-0,165970	
23,243000	0,66	-0,168570	
23,254000	0,66	-0,175420	
23,265000	0,66	-0,175580	
23,276000	0,66	-0,162820	
23,287000	0,66	-0,152620	
23,298000	0,66	-0,146540	
23,309000	0,66	-0,154530	
23,320000	0,66	-0,163790	
23,331000	0,66	-0,160160	
23,342000	0,66	-0,152510	
23,353000	0,66	-0,154780	
23,364000	0,66	-0,151700	
23,375000	0,66	-0,141930	
23,386000	0,66	-0,148010	
23,397000	0,66	-0,161420	
23,408000	0,66	-0,168700	
23,419000	0,66	-0,173570	
23,430000	0,66	-0,171460	
23,441000	0,66	-0,165840	
23,452000	0,66	-0,169290	
23,463000	0,66	-0,179200	
23,474000	0,66	-0,185050	
23,485000	0,66	-0,173820	
23,496000	0,66	-0,169710	
23,507000	0,66	-0,175820	
23,518000	0,66	-0,181520	
23,529000	0,66	-0,186390	
23,540000	0,66	-0,174470	
23,551000	0,66	-0,175830	
23,562000	0,66	-0,179060	
23,573000	0,66	-0,174660	
23,584000	0,66	-0,165900	
23,595000	0,66	-0,167900	
23,606000	0,66	-0,171060	
23,617000	0,66	-0,171350	
23,628000	0,66	-0,168620	
23,639000	0,66	-0,167700	
23,650000	0,66	-0,178030	
23,661000	0,66	-0,182560	
23,672000	0,66	-0,170350	
23,683000	0,66	-0,160900	
23,694000	0,66	-0,150760	
23,705000	0,66	-0,141290	
23,716000	0,66	-0,133430	
23,727000	0,66	-0,130700	
23,738000	0,66	-0,123650	
23,749000	0,66	-0,124980	
23,760000	0,66	-0,124840	
23,771000	0,66	-0,115470	
23,782000	0,66	-0,119460	
23,793000	0,66	-0,118670	
23,804000	0,66	-0,109360	
23,815000	0,66	-0,099320	
23,826000	0,66	-0,096360	
23,837000	0,66	-0,092730	
23,848000	0,66	-0,086930	
23,859000	0,66	-0,073550	
23,870000	0,66	-0,067920	
23,881000	0,66	-0,060090	
23,892000	0,66	-0,059510	
23,903000	0,66	-0,042720	
23,914000	0,66	-0,018970	
23,925000	0,66	-0,009700	
23,936000	0,66	-0,005730	
23,947000	0,66	0,010740	
23,958000	0,66	0,022940	
23,969000	0,66	0,018600	
23,980000	0,66	0,001260	
23,991000	0,66	-0,003180	
24,002000	0,66	0,004190	
24,013000	0,66	0,008060	
24,024000	0,66	0,006530	
24,035000	0,66	-0,000600	
24,046000	0,66	-0,009420	
24,057000	0,66	-0,007210	
24,068000	0,66	0,002930	
24,079000	0,66	0,025760	
24,090000	0,66	0,066770	
24,101000	0,66	0,136510	
24,112000	0,66	0,290150	
24,123000	0,66	0,587900	
24,134000	0,66	1,104910	
24,145000	0,66	1,988560	
24,156000	0,66	3,517560	
24,167000	0,66	5,961200	
24,178000	0,66	9,248520	
24,189000	0,66	12,923510	
24,200000	0,66	16,393710	
24,211000	0,66	19,255450	
24,222000	0,66	21,356280	
24,233000	0,66	22,720530	
24,244000	0,66	23,452760	
24,255000	0,66	23,669070	
24,266000	0,66	23,485120	
24,277000	0,66	22,991120	
24,288000	0,66	22,266100	
24,299000	0,66	21,363510	
24,310000	0,66	20,344000	
24,321000	0,66	19,250880	
24,332000	0,66	18,097910	
24,343000	0,66	16,933970	
24,354000	0,66	15,770280	
24,365000	0,66	14,617980	
24,376000	0,66	13,493960	
24,387000	0,66	12,405850	
24,398000	0,66	11,355180	
24,409000	0,66	10,354010	
24,420000	0,66	9,421900	
24,431000	0,66	8,560430	
24,442000	0,66	7,776290	
24,453000	0,66	7,061880	
24,464000	0,66	6,426200	
24,475000	0,66	5,852500	
24,486000	0,66	5,352880	
24,497000	0,66	4,901540	
24,508000	0,66	4,482040	
24,519000	0,66	4,117230	
24,530000	0,66	3,775050	
24,541000	0,66	3,449530	
24,552000	0,66	3,132740	
24,563000	0,66	2,824810	
24,574000	0,66	2,536760	
24,585000	0,66	2,267430	
24,596000	0,66	2,012030	
24,607000	0,66	1,785190	
24,618000	0,66	1,587500	
24,629000	0,66	1,403770	
24,640000	0,66	1,236550	
24,651000	0,66	1,092460	
24,662000	0,66	0,960360	
24,673000	0,66	0,839220	
24,684000	0,66	0,747200	
24,695000	0,66	0,657350	
24,706000	0,66	0,583900	
24,717000	0,66	0,533080	
24,728000	0,66	0,473460	
24,739000	0,66	0,413100	
24,750000	0,66	0,371910	
24,761000	0,66	0,346170	
24,772000	0,66	0,313330	
24,783000	0,66	0,277580	
24,794000	0,66	0,245410	
24,805000	0,66	0,214430	
24,816000	0,66	0,192890	
24,827000	0,66	0,170150	
24,838000	0,66	0,146330	
24,849000	0,66	0,121300	
24,860000	0,66	0,102760	
24,871000	0,66	0,086410	
24,882000	0,66	0,054470	
24,893000	0,66	0,031350	
24,904000	0,66	0,019780	
24,915000	0,66	0,002780	
24,926000	0,66	-0,005920	
24,937000	0,66	-0,007160	
24,948000	0,66	-0,017190	
24,959000	0,66	-0,036260	
24,970000	0,66	-0,038580	
24,981000	0,66	-0,041300	
24,992000	0,66	-0,037060	
25,003000	0,66	-0,044420	
25,014000	0,66	-0,052880	
25,025000	0,66	-0,059900	
25,036000	0,66	-0,067770	
25,047000	0,66	-0,069730	
25,058000	0,66	-0,073840	
25,069000	0,66	-0,069420	
25,080000	0,66	-0,056710	
25,091000	0,66	-0,056620	
25,102000	0,66	-0,057700	
25,113000	0,66	-0,087760	
25,124000	0,66	-0,091240	
25,135000	0,66	-0,107970	
25,146000	0,66	-0,112430	
25,157000	0,66	-0,115810	
25,168000	0,66	-0,111650	
25,179000	0,66	-0,112220	
25,190000	0,66	-0,122080	
25,201000	0,66	-0,115120	
25,212000	0,66	-0,108730	
25,223000	0,66	-0,115160	
25,234000	0,66	-0,116200	
25,245000	0,66	-0,113660	
25,256000	0,66	-0,108930	
25,267000	0,66	-0,102040	
25,278000	0,66	-0,088060	
25,289000	0,66	-0,075950	
25,300000	0,66	-0,063790	
25,311000	0,66	-0,053820	
25,322000	0,66	-0,041430	
25,333000	0,66	-0,031780	
25,344000	0,66	-0,020560	
25,355000	0,66	-0,018340	
25,366000	0,66	-0,024150	
25,377000	0,66	-0,029110	
25,388000	0,66	-0,032820	
25,399000	0,66	-0,038250	
25,410000	0,66	-0,050980	
25,421000	0,66	-0,063540	
25,432000	0,66	-0,069350	
25,443000	0,66	-0,072080	
25,454000	0,66	-0,085780	
25,465000	0,66	-0,093320	
25,476000	0,66	-0,093070	
25,487000	0,66	-0,102540	
25,498000	0,66	-0,113940	
25,509000	0,66	-0,122150	
25,520000	0,66	-0,122710	
25,531000	0,66	-0,128910	
25,542000	0,66	-0,139300	
25,553000	0,66	-0,146930	
25,564000	0,66	-0,149260	
25,575000	0,66	-0,145490	
25,586000	0,66	-0,154990	
25,597000	0,66	-0,179750	
25,608000	0,66	-0,166450	
25,619000	0,66	-0,151530	
25,630000	0,66	-0,151890	
25,641000	0,66	-0,151970	
25,652000	0,66	-0,155830	
25,663000	0,66	-0,174460	
25,674000	0,66	-0,175730	
25,685000	0,66	-0,168270	
25,696000	0,66	-0,174500	
25,707000	0,66	-0,167130	
25,718000	0,66	-0,167380	
25,729000	0,66	-0,164740	
25,740000	0,66	-0,176760	
25,751000	0,66	-0,176810	
25,762000	0,66	-0,186010	
25,773000	0,66	-0,190680	
25,784000	0,66	-0,182320	
25,795000	0,66	-0,177310	
25,806000	0,66	-0,181450	
25,817000	0,66	-0,187180	
25,828000	0,66	-0,183230	
25,839000	0,66	-0,188650	
25,850000	0,66	-0,177870	
25,861000	0,66	-0,173810	
25,872000	0,66	-0,173830	
25,883000	0,66	-0,178760	
25,894000	0,66	-0,172960	
25,905000	0,66	-0,173480	
25,916000	0,66	-0,173080	
25,927000	0,66	-0,168690	
25,938000	0,66	-0,158260	
25,949000	0,66	-0,152470	
25,960000	0,66	-0,154500	
25,971000	0,66	-0,152800	
25,982000	0,66	-0,156450	
25,993000	0,66	-0,171310	
26,004000	0,66	-0,177300	
26,015000	0,66	-0,173660	
26,026000	0,66	-0,158300	
26,037000	0,66	-0,158050	
26,048000	0,66	-0,168800	
26,059000	0,66	-0,173150	
26,070000	0,66	-0,181570	
26,081000	0,66	-0,191040	
26,092000	0,66	-0,182830	
26,103000	0,66	-0,177120	
26,114000	0,66	-0,176600	
26,125000	0,66	-0,182400	
26,136000	0,66	-0,196830	
26,147000	0,66	-0,197490	
26,158000	0,66	-0,185850	
26,169000	0,66	-0,185340	
26,180000	0,66	-0,183330	
26,191000	0,66	-0,177750	
26,202000	0,66	-0,186070	
26,213000	0,66	-0,195150	
26,224000	0,66	-0,197030	
26,235000	0,66	-0,193650	
26,246000	0,66	-0,187850	
26,257000	0,66	-0,178530	
26,268000	0,66	-0,182760	
26,279000	0,66	-0,184760	
26,290000	0,66	-0,195640	
26,301000	0,66	-0,203130	
26,312000	0,66	-0,201430	
26,323000	0,66	-0,192080	
26,334000	0,66	-0,188600	
26,345000	0,66	-0,189900	
26,356000	0,66	-0,191400	
26,367000	0,66	-0,196620	
26,378000	0,66	-0,203670	
26,389000	0,66	-0,203980	
26,400000	0,66	-0,192070	
26,411000	0,66	-0,194540	
26,422000	0,66	-0,193950	
26,433000	0,66	-0,194120	
26,444000	0,66	-0,196520	
26,455000	0,66	-0,191600	
26,466000	0,66	-0,184610	
26,477000	0,66	-0,189000	
26,488000	0,66	-0,187580	
26,499000	0,66	-0,191360	
26,510000	0,66	-0,187350	
26,521000	0,66	-0,194330	
26,532000	0,66	-0,196420	
26,543000	0,66	-0,187160	
26,554000	0,66	-0,187930	
26,565000	0,66	-0,176000	
26,576000	0,66	-0,177550	
26,587000	0,66	-0,180460	
26,598000	0,66	-0,182670	
26,609000	0,66	-0,177660	
26,620000	0,66	-0,170250	
26,631000	0,66	-0,171400	
26,642000	0,66	-0,174560	
26,653000	0,66	-0,173890	
26,664000	0,66	-0,178340	
26,675000	0,66	-0,194520	
26,686000	0,66	-0,193610	
26,697000	0,66	-0,191690	
26,708000	0,66	-0,179380	
26,719000	0,66	-0,174710	
26,730000	0,66	-0,178830	
26,741000	0,66	-0,178000	
26,752000	0,66	-0,169080	
26,763000	0,66	-0,171620	
26,774000	0,66	-0,185340	
26,785000	0,66	-0,194300	
26,796000	0,66	-0,191560	
26,807000	0,66	-0,192480	
26,818000	0,66	-0,194990	
26,829000	0,66	-0,198040	
26,840000	0,66	-0,209250	
26,851000	0,66	-0,212800	
26,862000	0,66	-0,205580	
26,873000	0,66	-0,199800	
26,884000	0,66	-0,195590	
26,895000	0,66	-0,192820	
26,906000	0,66	-0,196830	
26,917000	0,66	-0,202680	
26,928000	0,66	-0,200050	
26,939000	0,66	-0,197400	
26,950000	0,66	-0,201970	
26,961000	0,66	-0,205930	
26,972000	0,66	-0,199960	
26,983000	0,66	-0,195810	
26,994000	0,66	-0,192240	
27,005000	0,66	-0,184090	
27,016000	0,66	-0,184200	
27,027000	0,66	-0,187720	
27,038000	0,66	-0,187840	
27,049000	0,66	-0,185940	
27,060000	0,66	-0,186560	
27,071000	0,66	-0,190250	
27,082000	0,66	-0,204210	
27,093000	0,66	-0,209490	
27,104000	0,66	-0,200040	
27,115000	0,66	-0,195420	
27,126000	0,66	-0,199640	
27,137000	0,66	-0,196940	
27,148000	0,66	-0,190970	
27,159000	0,66	-0,183000	
27,170000	0,66	-0,191370	
27,181000	0,66	-0,201040	
27,192000	0,66	-0,199150	
27,203000	0,66	-0,206870	
27,214000	0,66	-0,201490	
27,225000	0,66	-0,192740	
27,236000	0,66	-0,191760	
27,247000	0,66	-0,191650	
27,258000	0,66	-0,194180	
27,269000	0,66	-0,195830	
27,280000	0,66	-0,207480	
27,291000	0,66	-0,216400	
27,302000	0,66	-0,208590	
27,313000	0,66	-0,192170	
27,324000	0,66	-0,190410	
27,335000	0,66	-0,197460	
27,346000	0,66	-0,202560	
27,357000	0,66	-0,209220	
27,368000	0,66	-0,217330	
27,379000	0,66	-0,223450	
27,390000	0,66	-0,214870	
27,401000	0,66	-0,215570	
27,412000	0,66	-0,209660	
27,423000	0,66	-0,203690	
27,434000	0,66	-0,198690	
27,445000	0,66	-0,193470	
27,456000	0,66	-0,199220	
27,467000	0,66	-0,204010	
27,478000	0,66	-0,207630	
27,489000	0,66	-0,205810	
27,500000	0,66	-0,199510	
27,511000	0,66	-0,199430	
27,522000	0,66	-0,206230	
27,533000	0,66	-0,221720	
27,544000	0,66	-0,226430	
27,555000	0,66	-0,219390	
27,566000	0,66	-0,219870	
27,577000	0,66	-0,209350	
27,588000	0,66	-0,201790	
27,599000	0,66	-0,211150	
27,610000	0,66	-0,208280	
27,621000	0,66	-0,199580	
27,632000	0,66	-0,191930	
27,643000	0,66	-0,199300	
27,654000	0,66	-0,212460	
27,665000	0,66	-0,217690	
27,676000	0,66	-0,217820	
27,687000	0,66	-0,213820	
27,698000	0,66	-0,218320	
27,709000	0,66	-0,214420	
27,720000	0,66	-0,206420	
27,731000	0,66	-0,215270	
27,742000	0,66	-0,220460	
27,753000	0,66	-0,222850	
27,764000	0,66	-0,228780	
27,775000	0,66	-0,223670	
27,786000	0,66	-0,233780	
27,797000	0,66	-0,225410	
27,808000	0,66	-0,222000	
27,819000	0,66	-0,222230	
27,830000	0,66	-0,220160	
27,841000	0,66	-0,215780	
27,852000	0,66	-0,225970	
27,863000	0,66	-0,223100	
27,874000	0,66	-0,214670	
27,885000	0,66	-0,209470	
27,896000	0,66	-0,213310	
27,907000	0,66	-0,203570	
27,918000	0,66	-0,210540	
27,929000	0,66	-0,214590	
27,940000	0,66	-0,217740	
27,951000	0,66	-0,223540	
27,962000	0,66	-0,217610	
27,973000	0,66	-0,222670	
27,984000	0,66	-0,226060	
27,995000	0,66	-0,216290	
28,006000	0,66	-0,206720	
28,017000	0,66	-0,201350	
28,028000	0,66	-0,205030	
28,039000	0,66	-0,213860	
28,050000	0,66	-0,213440	
28,061000	0,66	-0,209870	
28,072000	0,66	-0,197000	
28,083000	0,66	-0,197690	
28,094000	0,66	-0,207760	
28,105000	0,66	-0,206850	
28,116000	0,66	-0,203990	
28,127000	0,66	-0,211740	
28,138000	0,66	-0,221650	
28,149000	0,66	-0,216830	
28,160000	0,66	-0,208710	
28,171000	0,66	-0,204380	
28,182000	0,66	-0,201030	
28,193000	0,66	-0,205450	
28,204000	0,66	-0,223000	
28,215000	0,66	-0,232970	
28,226000	0,66	-0,232060	
28,237000	0,66	-0,219380	
28,248000	0,66	-0,196570	
28,259000	0,66	-0,197420	
28,270000	0,66	-0,206930	
28,281000	0,66	-0,208340	
28,292000	0,66	-0,216830	
28,303000	0,66	-0,218910	
28,314000	0,66	-0,221440	
28,325000	0,66	-0,226180	
28,336000	0,66	-0,223440	
28,347000	0,66	-0,217430	
28,358000	0,66	-0,209850	
28,369000	0,66	-0,205060	
28,380000	0,66	-0,212710	
28,391000	0,66	-0,205630	
28,402000	0,66	-0,201540	
28,413000	0,66	-0,213150	
28,424000	0,66	-0,207570	
28,435000	0,66	-0,199170	
28,446000	0,66	-0,197950	
28,457000	0,66	-0,198860	
28,468000	0,66	-0,206380	
28,479000	0,66	-0,200530	
28,490000	0,66	-0,209460	
28,501000	0,66	-0,213230	
28,512000	0,66	-0,209510	
28,523000	0,66	-0,196160	
28,534000	0,66	-0,186420	
28,545000	0,66	-0,189360	
28,556000	0,66	-0,188150	
28,567000	0,66	-0,179170	
28,578000	0,66	-0,180670	
28,589000	0,66	-0,175350	
28,600000	0,66	-0,180720	
28,611000	0,66	-0,176430	
28,622000	0,66	-0,165730	
28,633000	0,66	-0,175820	
28,644000	0,66	-0,180760	
28,655000	0,66	-0,185030	
28,666000	0,66	-0,192780	
28,677000	0,66	-0,200530	
28,688000	0,66	-0,204980	
28,699000	0,66	-0,198540	
28,710000	0,66	-0,203290	
28,721000	0,66	-0,191540	
28,732000	0,66	-0,180640	
28,743000	0,66	-0,182050	
28,754000	0,66	-0,189350	
28,765000	0,66	-0,198630	
28,776000	0,66	-0,210130	
28,787000	0,66	-0,199290	
28,798000	0,66	-0,193960	
28,809000	0,66	-0,194500	
28,820000	0,66	-0,189930	
28,831000	0,66	-0,185470	
28,842000	0,66	-0,182760	
28,853000	0,66	-0,175970	
28,864000	0,66	-0,168720	
28,875000	0,66	-0,177660	
28,886000	0,66	-0,181410	
28,897000	0,66	-0,180980	
28,908000	0,66	-0,189730	
28,919000	0,66	-0,201190	
28,930000	0,66	-0,204710	
28,941000	0,66	-0,207220	
28,952000	0,66	-0,207960	
28,963000	0,66	-0,201170	
28,974000	0,66	-0,206070	
28,985000	0,66	-0,224310	
28,996000	0,66	-0,229620	
29,007000	0,66	-0,212200	
29,018000	0,66	-0,195370	
29,029000	0,66	-0,196680	
29,040000	0,66	-0,205070	
29,051000	0,66	-0,207670	
29,062000	0,66	-0,208660	
29,073000	0,66	-0,207020	
29,084000	0,66	-0,202180	
29,095000	0,66	-0,200670	
29,106000	0,66	-0,204130	
29,117000	0,66	-0,209900	
29,128000	0,66	-0,216300	
29,139000	0,66	-0,224850	
29,150000	0,66	-0,231910	
29,161000	0,66	-0,241830	
29,172000	0,66	-0,238160	
29,183000	0,66	-0,245000	
29,194000	0,66	-0,245470	
29,205000	0,66	-0,239130	
29,216000	0,66	-0,247930	
29,227000	0,66	-0,241450	
29,238000	0,66	-0,231390	
29,249000	0,66	-0,215900	
29,260000	0,66	-0,211140	
29,271000	0,66	-0,207420	
29,282000	0,66	-0,200580	
29,293000	0,66	-0,206460	
29,304000	0,66	-0,214530	
29,315000	0,66	-0,227030	
29,326000	0,66	-0,235270	
29,337000	0,66	-0,225830	
29,348000	0,66	-0,216260	
29,359000	0,66	-0,211310	
29,370000	0,66	-0,203380	
29,381000	0,66	-0,192420	
29,392000	0,66	-0,201780	
29,403000	0,66	-0,191540	
29,414000	0,66	-0,187640	
29,425000	0,66	-0,192800	
29,436000	0,66	-0,192110	
29,447000	0,66	-0,191030	
29,458000	0,66	-0,187760	
29,469000	0,66	-0,201660	
29,480000	0,66	-0,212860	
29,491000	0,66	-0,210960	
29,502000	0,66	-0,217970	
29,513000	0,66	-0,239530	
29,524000	0,66	-0,247860	
29,535000	0,66	-0,240900	
29,546000	0,66	-0,245460	
29,557000	0,66	-0,243470	
29,568000	0,66	-0,239030	
29,579000	0,66	-0,238990	
29,590000	0,66	-0,240990	
29,601000	0,66	-0,242390	
29,612000	0,66	-0,233170	
29,623000	0,66	-0,222060	
29,634000	0,66	-0,213330	
29,645000	0,66	-0,208610	
29,656000	0,66	-0,206020	
29,667000	0,66	-0,203030	
29,678000	0,66	-0,212500	
29,689000	0,66	-0,224770	
29,700000	0,66	-0,226160	
29,711000	0,66	-0,229850	
29,722000	0,66	-0,238290	
29,733000	0,66	-0,237680	
29,744000	0,66	-0,233960	
29,755000	0,66	-0,238010	
29,766000	0,66	-0,234410	
29,777000	0,66	-0,229160	
29,788000	0,66	-0,230940	
29,799000	0,66	-0,224120	
29,810000	0,66	-0,222900	
29,821000	0,66	-0,216290	
29,832000	0,66	-0,219910	
29,843000	0,66	-0,224620	
29,854000	0,66	-0,231050	
29,865000	0,66	-0,236390	
29,876000	0,66	-0,239010	
29,887000	0,66	-0,230640	
29,898000	0,66	-0,234910	
29,909000	0,66	-0,234260	
29,920000	0,66	-0,232680	
29,931000	0,66	-0,230600	
29,942000	0,66	-0,224380	
29,953000	0,66	-0,224630	
29,964000	0,66	-0,230280	
29,975000	0,66	-0,227550	
29,986000	0,66	-0,223820	
29,997000	0,66	-0,230970	
30,008000	0,66	-0,226490	
30,019000	0,66	-0,215380	
30,030000	0,66	-0,218550	
30,041000	0,66	-0,220360	
30,052000	0,66	-0,218890	
30,063000	0,66	-0,220430	
30,074000	0,66	-0,224950	
30,085000	0,66	-0,225130	
30,096000	0,66	-0,227450	
30,107000	0,66	-0,227250	
30,118000	0,66	-0,233520	
30,129000	0,66	-0,238230	
30,140000	0,66	-0,240330	
30,151000	0,66	-0,235630	
30,162000	0,66	-0,227950	
30,173000	0,66	-0,229460	
30,184000	0,66	-0,228100	
30,195000	0,66	-0,230440	
30,206000	0,66	-0,227940	
30,217000	0,66	-0,227010	
30,228000	0,66	-0,221540	
30,239000	0,66	-0,221150	
30,250000	0,66	-0,224390	
30,261000	0,66	-0,216670	
30,272000	0,66	-0,212680	
30,283000	0,66	-0,215960	
30,294000	0,66	-0,215960	
30,305000	0,66	-0,226840	
30,316000	0,66	-0,239970	
30,327000	0,66	-0,241590	
30,338000	0,66	-0,239150	
30,349000	0,66	-0,232640	
30,360000	0,66	-0,234200	
30,371000	0,66	-0,232290	
30,382000	0,66	-0,224030	
30,393000	0,66	-0,225670	
30,404000	0,66	-0,221430	
30,415000	0,66	-0,226380	
30,426000	0,66	-0,238990	
30,437000	0,66	-0,244540	
30,448000	0,66	-0,247410	
30,459000	0,66	-0,238020	
30,470000	0,66	-0,221050	
30,481000	0,66	-0,224830	
30,492000	0,66	-0,230740	
30,503000	0,66	-0,236570	
30,514000	0,66	-0,247270	
30,525000	0,66	-0,250820	
30,536000	0,66	-0,242800	
30,547000	0,66	-0,229970	
30,558000	0,66	-0,220360	
30,569000	0,66	-0,221770	
30,580000	0,66	-0,215910	
30,591000	0,66	-0,221320	
30,602000	0,66	-0,230190	
30,613000	0,66	-0,239000	
30,624000	0,66	-0,242850	
30,635000	0,66	-0,245850	
30,646000	0,66	-0,242510	
30,657000	0,66	-0,248750	
30,668000	0,66	-0,243670	
30,679000	0,66	-0,244430	
30,690000	0,66	-0,240090	
30,701000	0,66	-0,237210	
30,712000	0,66	-0,233800	
30,723000	0,66	-0,247780	
30,734000	0,66	-0,246150	
30,745000	0,66	-0,234780	
30,756000	0,66	-0,230010	
30,767000	0,66	-0,236270	
30,778000	0,66	-0,233750	
30,789000	0,66	-0,232570	
30,800000	0,66	-0,237310	
30,811000	0,66	-0,230860	
30,822000	0,66	-0,235030	
30,833000	0,66	-0,240140	
30,844000	0,66	-0,241250	
30,855000	0,66	-0,236510	
30,866000	0,66	-0,229900	
30,877000	0,66	-0,238510	
30,888000	0,66	-0,247240	
30,899000	0,66	-0,247710	
30,910000	0,66	-0,243930	
30,921000	0,66	-0,235970	
30,932000	0,66	-0,235260	
30,943000	0,66	-0,226800	
30,954000	0,66	-0,216300	
30,965000	0,66	-0,220260	
30,976000	0,66	-0,226550	
30,987000	0,66	-0,239460	
30,998000	0,66	-0,244120	
31,009000	0,66	-0,240520	
31,020000	0,66	-0,232430	
31,031000	0,66	-0,232210	
31,042000	0,66	-0,234360	
31,053000	0,66	-0,227940	
31,064000	0,66	-0,232750	
31,075000	0,66	-0,242570	
31,086000	0,66	-0,241320	
31,097000	0,66	-0,238010	
31,108000	0,66	-0,239830	
31,119000	0,66	-0,243360	
31,130000	0,66	-0,247050	
31,141000	0,66	-0,251410	
31,152000	0,66	-0,249050	
31,163000	0,66	-0,244790	
31,174000	0,66	-0,235490	
31,185000	0,66	-0,225900	
31,196000	0,66	-0,226560	
31,207000	0,66	-0,231220	
31,218000	0,66	-0,232670	
31,229000	0,66	-0,235960	
31,240000	0,66	-0,239960	
31,251000	0,66	-0,245050	
31,262000	0,66	-0,252550	
31,273000	0,66	-0,256490	
31,284000	0,66	-0,252280	
31,295000	0,66	-0,245160	
31,306000	0,66	-0,239520	
31,317000	0,66	-0,234160	
31,328000	0,66	-0,239110	
31,339000	0,66	-0,239610	
31,350000	0,66	-0,243550	
31,361000	0,66	-0,241560	
31,372000	0,66	-0,236380	
31,383000	0,66	-0,236990	
31,394000	0,66	-0,252110	
31,405000	0,66	-0,251700	
31,416000	0,66	-0,245760	
31,427000	0,66	-0,251660	
31,438000	0,66	-0,246730	
31,449000	0,66	-0,242650	
31,460000	0,66	-0,230390	
31,471000	0,66	-0,227430	
31,482000	0,66	-0,232160	
31,493000	0,66	-0,235760	
31,504000	0,66	-0,226750	
31,515000	0,66	-0,229830	
31,526000	0,66	-0,244330	
31,537000	0,66	-0,244090	
31,548000	0,66	-0,228900	
31,559000	0,66	-0,223110	
31,570000	0,66	-0,230460	
31,581000	0,66	-0,242650	
31,592000	0,66	-0,243370	
31,603000	0,66	-0,244740	
31,614000	0,66	-0,243550	
31,625000	0,66	-0,238350	
31,636000	0,66	-0,237600	
31,647000	0,66	-0,246310	
31,658000	0,66	-0,250070	
31,669000	0,66	-0,239020	
31,680000	0,66	-0,237370	
31,691000	0,66	-0,237390	
31,702000	0,66	-0,236820	
31,713000	0,66	-0,246950	
31,724000	0,66	-0,247500	
31,735000	0,66	-0,242760	
31,746000	0,66	-0,244130	
31,757000	0,66	-0,249390	
31,768000	0,66	-0,253110	
31,779000	0,66	-0,245100	
31,790000	0,66	-0,234280	
31,801000	0,66	-0,234690	
31,812000	0,66	-0,241260	
31,823000	0,66	-0,241400	
31,834000	0,66	-0,248250	
31,845000	0,66	-0,256790	
31,856000	0,66	-0,263790	
31,867000	0,66	-0,258300	
31,878000	0,66	-0,246670	
31,889000	0,66	-0,236960	
31,900000	0,66	-0,239250	
31,911000	0,66	-0,239470	
31,922000	0,66	-0,245380	
31,933000	0,66	-0,243690	
31,944000	0,66	-0,253760	
31,955000	0,66	-0,251040	
31,966000	0,66	-0,243380	
31,977000	0,66	-0,239120	
31,988000	0,66	-0,239550	
31,999000	0,66	-0,249470	
32,010000	0,66	-0,255480	
32,021000	0,66	-0,259580	
32,032000	0,66	-0,258550	
32,043000	0,66	-0,256120	
32,054000	0,66	-0,259330	
32,065000	0,66	-0,248690	
32,076000	0,66	-0,258650	
32,087000	0,66	-0,257070	
32,098000	0,66	-0,246210	
32,109000	0,66	-0,231030	
32,120000	0,66	-0,234910	
32,131000	0,66	-0,241550	
32,142000	0,66	-0,239450	
32,153000	0,66	-0,260280	
32,164000	0,66	-0,268730	
32,175000	0,66	-0,260500	
32,186000	0,66	-0,262060	
32,197000	0,66	-0,253700	
32,208000	0,66	-0,236350	
32,219000	0,66	-0,226320	
32,230000	0,66	-0,235610	
32,241000	0,66	-0,247620	
32,252000	0,66	-0,247920	
32,263000	0,66	-0,246330	
32,274000	0,66	-0,245380	
32,285000	0,66	-0,248390	
32,296000	0,66	-0,244670	
32,307000	0,66	-0,251550	
32,318000	0,66	-0,256840	
32,329000	0,66	-0,260260	
32,340000	0,66	-0,254650	
32,351000	0,66	-0,250710	
32,362000	0,66	-0,254280	
32,373000	0,66	-0,258450	
32,384000	0,66	-0,259000	
32,395000	0,66	-0,256900	
32,406000	0,66	-0,245940	
32,417000	0,66	-0,242810	
32,428000	0,66	-0,249150	
32,439000	0,66	-0,254610	
32,450000	0,66	-0,256860	
32,461000	0,66	-0,252320	
32,472000	0,66	-0,249210	
32,483000	0,66	-0,251600	
32,494000	0,66	-0,252070	
32,505000	0,66	-0,253140	
32,516000	0,66	-0,264010	
32,527000	0,66	-0,268450	
32,538000	0,66	-0,265700	
32,549000	0,66	-0,260570	
32,560000	0,66	-0,262220	
32,571000	0,66	-0,266910	
32,582000	0,66	-0,264980	
32,593000	0,66	-0,261440	
32,604000	0,66	-0,262860	
32,615000	0,66	-0,265180	
32,626000	0,66	-0,263020	
32,637000	0,66	-0,257820	
32,648000	0,66	-0,260690	
32,659000	0,66	-0,266150	
32,670000	0,66	-0,268120	
32,681000	0,66	-0,257690	
32,692000	0,66	-0,268100	
32,703000	0,66	-0,275070	
32,714000	0,66	-0,273590	
32,725000	0,66	-0,268180	
32,736000	0,66	-0,276590	
32,747000	0,66	-0,274930	
32,758000	0,66	-0,277700	
32,769000	0,66	-0,271220	
32,780000	0,66	-0,275160	
32,791000	0,66	-0,272200	
32,802000	0,66	-0,271140	
32,813000	0,66	-0,268360	
32,824000	0,66	-0,275090	
32,835000	0,66	-0,277200	
32,846000	0,66	-0,267660	
32,857000	0,66	-0,256240	
32,868000	0,66	-0,252430	
32,879000	0,66	-0,240750	
32,890000	0,66	-0,237600	
32,901000	0,66	-0,243890	
32,912000	0,66	-0,245580	
32,923000	0,66	-0,245260	
32,934000	0,66	-0,259030	
32,945000	0,66	-0,257930	
32,956000	0,66	-0,259180	
32,967000	0,66	-0,262530	
32,978000	0,66	-0,262730	
32,989000	0,66	-0,275850	
33,000000	0,66	-0,281110	
33,011000	0,66	-0,275730	
33,022000	0,66	-0,275550	
33,033000	0,66	-0,265910	
33,044000	0,66	-0,251890	
33,055000	0,66	-0,255470	
33,066000	0,66	-0,260790	
33,077000	0,66	-0,251690	
33,088000	0,66	-0,240410	
33,099000	0,66	-0,243770	
33,110000	0,66	-0,249710	
33,121000	0,66	-0,253650	
33,132000	0,66	-0,257630	
33,143000	0,66	-0,260710	
33,154000	0,66	-0,264770	
33,165000	0,66	-0,265210	
33,176000	0,66	-0,263940	
33,187000	0,66	-0,264580	
33,198000	0,66	-0,271090	
33,209000	0,66	-0,267270	
33,220000	0,66	-0,248900	
33,231000	0,66	-0,243560	
33,242000	0,66	-0,245520	
33,253000	0,66	-0,258980	
33,264000	0,66	-0,263610	
33,275000	0,66	-0,261030	
33,286000	0,66	-0,262380	
33,297000	0,66	-0,271510	
33,308000	0,66	-0,270300	
33,319000	0,66	-0,272980	
33,330000	0,66	-0,280260	
33,341000	0,66	-0,277590	
33,352000	0,66	-0,269900	
33,363000	0,66	-0,258510	
33,374000	0,66	-0,258940	
33,385000	0,66	-0,257120	
33,396000	0,66	-0,256730	
33,407000	0,66	-0,265560	
33,418000	0,66	-0,268620	
33,429000	0,66	-0,260940	
33,440000	0,66	-0,272680	
33,451000	0,66	-0,271060	
33,462000	0,66	-0,268150	
33,473000	0,66	-0,266310	
33,484000	0,66	-0,268790	
33,495000	0,66	-0,263030	
33,506000	0,66	-0,268790	
33,517000	0,66	-0,272860	
33,528000	0,66	-0,270510	
33,539000	0,66	-0,267130	
33,550000	0,66	-0,272020	
33,561000	0,66	-0,280200	
33,572000	0,66	-0,277370	
33,583000	0,66	-0,274080	
33,594000	0,66	-0,265120	
33,605000	0,66	-0,258060	
33,616000	0,66	-0,251740	
33,627000	0,66	-0,250470	
33,638000	0,66	-0,261100	
33,649000	0,66	-0,261030	
33,660000	0,66	-0,260800	
33,671000	0,66	-0,283120	
33,682000	0,66	-0,285310	
33,693000	0,66	-0,278470	
33,704000	0,66	-0,272670	
33,715000	0,66	-0,272480	
33,726000	0,66	-0,275990	
33,737000	0,66	-0,271210	
33,748000	0,66	-0,265610	
33,759000	0,66	-0,273370	
33,770000	0,66	-0,282920	
33,781000	0,66	-0,283750	
33,792000	0,66	-0,281080	
33,803000	0,66	-0,276670	
33,814000	0,66	-0,277240	
33,825000	0,66	-0,274720	
33,836000	0,66	-0,270220	
33,847000	0,66	-0,277740	
33,858000	0,66	-0,281140	
33,869000	0,66	-0,278950	
33,880000	0,66	-0,286310	
33,891000	0,66	-0,285210	
33,902000	0,66	-0,276760	
33,913000	0,66	-0,272410	
33,924000	0,66	-0,262740	
33,935000	0,66	-0,270470	
33,946000	0,66	-0,273720	
33,957000	0,66	-0,274300	
33,968000	0,66	-0,271090	
33,979000	0,66	-0,269420	
33,990000	0,66	-0,271290	
34,001000	0,66	-0,275880	
34,012000	0,66	-0,274190	
34,023000	0,66	-0,267470	
34,034000	0,66	-0,280830	
34,045000	0,66	-0,278090	
34,056000	0,66	-0,287180	
34,067000	0,66	-0,282030	
34,078000	0,66	-0,292830	
34,089000	0,66	-0,284830	
34,100000	0,66	-0,280830	
34,111000	0,66	-0,289480	
34,122000	0,66	-0,281650	
34,133000	0,66	-0,277420	
34,144000	0,66	-0,266580	
34,155000	0,66	-0,266790	
34,166000	0,66	-0,267460	
34,177000	0,66	-0,280260	
34,188000	0,66	-0,275920	
34,199000	0,66	-0,275620	
34,210000	0,66	-0,280650	
34,221000	0,66	-0,282620	
34,232000	0,66	-0,274210	
34,243000	0,66	-0,270430	
34,254000	0,66	-0,270430	
34,265000	0,66	-0,269080	
34,276000	0,66	-0,273710	
34,287000	0,66	-0,276500	
34,298000	0,66	-0,270260	
34,309000	0,66	-0,271000	
34,320000	0,66	-0,276970	
34,331000	0,66	-0,274370	
34,342000	0,66	-0,276660	
34,353000	0,66	-0,281480	
34,364000	0,66	-0,283350	
34,375000	0,66	-0,287090	
34,386000	0,66	-0,290800	
34,397000	0,66	-0,290290	
34,408000	0,66	-0,287840	
34,419000	0,66	-0,280210	
34,430000	0,66	-0,277100	
34,441000	0,66	-0,272390	
34,452000	0,66	-0,269350	
34,463000	0,66	-0,277870	
34,474000	0,66	-0,273940	
34,485000	0,66	-0,266130	
34,496000	0,66	-0,269150	
34,507000	0,66	-0,281590	
34,518000	0,66	-0,284800	
34,529000	0,66	-0,281850	
34,540000	0,66	-0,285380	
34,551000	0,66	-0,288190	
34,562000	0,66	-0,292270	
34,573000	0,66	-0,291440	
34,584000	0,66	-0,285290	
34,595000	0,66	-0,280180	
34,606000	0,66	-0,278050	
34,617000	0,66	-0,281760	
34,628000	0,66	-0,278060	
34,639000	0,66	-0,267580	
34,650000	0,66	-0,262960	
34,661000	0,66	-0,266440	
34,672000	0,66	-0,267910	
34,683000	0,66	-0,276170	
34,694000	0,66	-0,275800	
34,705000	0,66	-0,268920	
34,716000	0,66	-0,268790	
34,727000	0,66	-0,270380	
34,738000	0,66	-0,272560	
34,749000	0,66	-0,282120	
34,760000	0,66	-0,271830	
34,771000	0,66	-0,272870	
34,782000	0,66	-0,275100	
34,793000	0,66	-0,278550	
34,804000	0,66	-0,273870	
34,815000	0,66	-0,277450	
34,826000	0,66	-0,282960	
34,837000	0,66	-0,282920	
34,848000	0,66	-0,284340	
34,859000	0,66	-0,274880	
34,870000	0,66	-0,271090	
34,881000	0,66	-0,273790	
34,892000	0,66	-0,275340	
34,903000	0,66	-0,275530	
34,914000	0,66	-0,261720	
34,925000	0,66	-0,271670	
34,936000	0,66	-0,278720	
34,947000	0,66	-0,266530	
34,958000	0,66	-0,267310	
34,969000	0,66	-0,263370	
34,980000	0,66	-0,261430	
34,991000	0,66	-0,264010	
35,002000	0,66	-0,262270	
35,013000	0,66	-0,271230	
35,024000	0,66	-0,274530	
35,035000	0,66	-0,267230	
35,046000	0,66	-0,267190	
35,057000	0,66	-0,261850	
35,068000	0,66	-0,265640	
35,079000	0,66	-0,272430	
35,090000	0,66	-0,269060	
35,101000	0,66	-0,266930	
35,112000	0,66	-0,277180	
35,123000	0,66	-0,275920	
35,134000	0,66	-0,265460	
35,145000	0,66	-0,265810	
35,156000	0,66	-0,273790	
35,167000	0,66	-0,285800	
35,178000	0,66	-0,290880	
35,189000	0,66	-0,288470	
35,200000	0,66	-0,286370	
35,211000	0,66	-0,281110	
35,222000	0,66	-0,280930	
35,233000	0,66	-0,281270	
35,244000	0,66	-0,271600	
35,255000	0,66	-0,264900	
35,266000	0,66	-0,269130	
35,277000	0,66	-0,279050	
35,288000	0,66	-0,283690	
35,299000	0,66	-0,287260	
35,310000	0,66	-0,292500	
35,321000	0,66	-0,290560	
35,332000	0,66	-0,288720	
35,343000	0,66	-0,285970	
35,354000	0,66	-0,281640	
35,365000	0,66	-0,285270	
35,376000	0,66	-0,292510	
35,387000	0,66	-0,288900	
35,398000	0,66	-0,278790	
35,409000	0,66	-0,283920	
35,420000	0,66	-0,279770	
35,431000	0,66	-0,279740	
35,442000	0,66	-0,281690	
35,453000	0,66	-0,288880	
35,464000	0,66	-0,288300	
35,475000	0,66	-0,290880	
35,486000	0,66	-0,290300	
35,497000	0,66	-0,284470	
35,508000	0,66	-0,291270	
35,519000	0,66	-0,292390	
35,530000	0,66	-0,300410	
35,541000	0,66	-0,304260	
35,552000	0,66	-0,304240	
35,563000	0,66	-0,299770	
35,574000	0,66	-0,308850	
35,585000	0,66	-0,301930	
35,596000	0,66	-0,289490	
35,607000	0,66	-0,296640	
35,618000	0,66	-0,305300	
35,629000	0,66	-0,293030	
35,640000	0,66	-0,299420	
35,651000	0,66	-0,292450	
35,662000	0,66	-0,283140	
35,673000	0,66	-0,276970	
35,684000	0,66	-0,285080	
35,695000	0,66	-0,283070	
35,706000	0,66	-0,286880	
35,717000	0,66	-0,285020	
35,728000	0,66	-0,284500	
35,739000	0,66	-0,291390	
35,750000	0,66	-0,297820	
35,761000	0,66	-0,289100	
35,772000	0,66	-0,285510	
35,783000	0,66	-0,285310	
35,794000	0,66	-0,284700	
35,805000	0,66	-0,278750	
35,816000	0,66	-0,270230	
35,827000	0,66	-0,271380	
35,838000	0,66	-0,277630	
35,849000	0,66	-0,269100	
35,860000	0,66	-0,267170	
35,871000	0,66	-0,267270	
35,882000	0,66	-0,263020	
35,893000	0,66	-0,273150	
35,904000	0,66	-0,285880	
35,915000	0,66	-0,284990	
35,926000	0,66	-0,289000	
35,937000	0,66	-0,291030	
35,948000	0,66	-0,290080	
35,959000	0,66	-0,292820	
35,970000	0,66	-0,284050	
35,981000	0,66	-0,283870	
35,992000	0,66	-0,287800	
36,003000	0,66	-0,277480	
36,014000	0,66	-0,275660	
36,025000	0,66	-0,288210	
36,036000	0,66	-0,294190	
36,047000	0,66	-0,294160	
36,058000	0,66	-0,293790	
36,069000	0,66	-0,285240	
36,080000	0,66	-0,285330	
36,091000	0,66	-0,288110	
36,102000	0,66	-0,294090	
36,113000	0,66	-0,291740	
36,124000	0,66	-0,305140	
36,135000	0,66	-0,314920	
36,146000	0,66	-0,314110	
36,157000	0,66	-0,311690	
36,168000	0,66	-0,301410	
36,179000	0,66	-0,292230	
36,190000	0,66	-0,295250	
36,201000	0,66	-0,301720	
36,212000	0,66	-0,308310	
36,223000	0,66	-0,302710	
36,234000	0,66	-0,296260	
36,245000	0,66	-0,285950	
36,256000	0,66	-0,282490	
36,267000	0,66	-0,282750	
36,278000	0,66	-0,290020	
36,289000	0,66	-0,291520	
36,300000	0,66	-0,299020	
36,311000	0,66	-0,294610	
36,322000	0,66	-0,290310	
36,333000	0,66	-0,280410	
36,344000	0,66	-0,282720	
36,355000	0,66	-0,292400	
36,366000	0,66	-0,304070	
36,377000	0,66	-0,308350	
36,388000	0,66	-0,300070	
36,399000	0,66	-0,303530	
36,410000	0,66	-0,308890	
36,421000	0,66	-0,306300	
36,432000	0,66	-0,305560	
36,443000	0,66	-0,313750	
36,454000	0,66	-0,312670	
36,465000	0,66	-0,313070	
36,476000	0,66	-0,307180	
36,487000	0,66	-0,307570	
36,498000	0,66	-0,311500	
36,509000	0,66	-0,308560	
36,520000	0,66	-0,305720	
36,531000	0,66	-0,305860	
36,542000	0,66	-0,305060	
36,553000	0,66	-0,313360	
36,564000	0,66	-0,313200	
36,575000	0,66	-0,313480	
36,586000	0,66	-0,309590	
36,597000	0,66	-0,308630	
36,608000	0,66	-0,302780	
36,619000	0,66	-0,295970	
36,630000	0,66	-0,315440	
36,641000	0,66	-0,325560	
36,652000	0,66	-0,326460	
36,663000	0,66	-0,332850	
36,674000	0,66	-0,328300	
36,685000	0,66	-0,323890	
36,696000	0,66	-0,316420	
36,707000	0,66	-0,311410	
36,718000	0,66	-0,313280	
36,729000	0,66	-0,312750	
36,740000	0,66	-0,310400	
36,751000	0,66	-0,314040	
36,762000	0,66	-0,312550	
36,773000	0,66	-0,309140	
36,784000	0,66	-0,311590	
36,795000	0,66	-0,311240	
36,806000	0,66	-0,314710	
36,817000	0,66	-0,315440	
36,828000	0,66	-0,312350	
36,839000	0,66	-0,320740	
36,850000	0,66	-0,328720	
36,861000	0,66	-0,318540	
36,872000	0,66	-0,328960	
36,883000	0,66	-0,336370	
36,894000	0,66	-0,329410	
36,905000	0,66	-0,333940	
36,916000	0,66	-0,331610	
36,927000	0,66	-0,334000	
36,938000	0,66	-0,331900	
36,949000	0,66	-0,341020	
36,960000	0,66	-0,351060	
36,971000	0,66	-0,343050	
36,982000	0,66	-0,347590	
36,993000	0,66	-0,348310	
37,004000	0,66	-0,344560	
37,015000	0,66	-0,346650	
37,026000	0,66	-0,347480	
37,037000	0,66	-0,360350	
37,048000	0,66	-0,353950	
37,059000	0,66	-0,342810	
37,070000	0,66	-0,349410	
37,081000	0,66	-0,359130	
37,092000	0,66	-0,346970	
37,103000	0,66	-0,343780	
37,114000	0,66	-0,337570	
37,125000	0,66	-0,345060	
37,136000	0,66	-0,356270	
37,147000	0,66	-0,358750	
37,158000	0,66	-0,366990	
37,169000	0,66	-0,382880	
37,180000	0,66	-0,382490	
37,191000	0,66	-0,378730	
37,202000	0,66	-0,377030	
37,213000	0,66	-0,368640	
37,224000	0,66	-0,372890	
37,235000	0,66	-0,375520	
37,246000	0,66	-0,375320	
37,257000	0,66	-0,381390	
37,268000	0,66	-0,390590	
37,279000	0,66	-0,387780	
37,290000	0,66	-0,375860	
37,301000	0,66	-0,374150	
37,312000	0,66	-0,380300	
37,323000	0,66	-0,381600	
37,334000	0,66	-0,388270	
37,345000	0,66	-0,395010	
37,356000	0,66	-0,385740	
37,367000	0,66	-0,381340	
37,378000	0,66	-0,389450	
37,389000	0,66	-0,391580	
37,400000	0,66	-0,388600	
37,411000	0,66	-0,389960	
37,422000	0,66	-0,386750	
37,433000	0,66	-0,380640	
37,444000	0,66	-0,383200	
37,455000	0,66	-0,388740	
37,466000	0,66	-0,395350	
37,477000	0,66	-0,394970	
37,488000	0,66	-0,401390	
37,499000	0,66	-0,399210	
37,510000	0,66	-0,397070	
37,521000	0,66	-0,392100	
37,532000	0,66	-0,380180	
37,543000	0,66	-0,381790	
37,554000	0,66	-0,393330	
37,565000	0,66	-0,406680	
37,576000	0,66	-0,411390	
37,587000	0,66	-0,402460	
37,598000	0,66	-0,408400	
37,609000	0,66	-0,422960	
37,620000	0,66	-0,414760	
37,631000	0,66	-0,409410	
37,642000	0,66	-0,401550	
37,653000	0,66	-0,405980	
37,664000	0,66	-0,405080	
37,675000	0,66	-0,396970	
37,686000	0,66	-0,386370	
37,697000	0,66	-0,385070	
37,708000	0,66	-0,393250	
37,719000	0,66	-0,403030	
37,730000	0,66	-0,406500	
37,741000	0,66	-0,397170	
37,752000	0,66	-0,392920	
37,763000	0,66	-0,403280	
37,774000	0,66	-0,407590	
37,785000	0,66	-0,415200	
37,796000	0,66	-0,421460	
37,807000	0,66	-0,434390	
37,818000	0,66	-0,441230	
37,829000	0,66	-0,432730	
37,840000	0,66	-0,427870	
37,851000	0,66	-0,422390	
37,862000	0,66	-0,418050	
37,873000	0,66	-0,418120	
37,884000	0,66	-0,406650	
37,895000	0,66	-0,407620	
37,906000	0,66	-0,410630	
37,917000	0,66	-0,410630	
37,928000	0,66	-0,420710	
37,939000	0,66	-0,419580	
37,950000	0,66	-0,416590	
37,961000	0,66	-0,423270	
37,972000	0,66	-0,427390	
37,983000	0,66	-0,426810	
37,994000	0,66	-0,428920	
38,005000	0,66	-0,425410	
38,016000	0,66	-0,421870	
38,027000	0,66	-0,424460	
38,038000	0,66	-0,422510	
38,049000	0,66	-0,417900	
38,060000	0,66	-0,410990	
38,071000	0,66	-0,417720	
38,082000	0,66	-0,424510	
38,093000	0,66	-0,415400	
38,104000	0,66	-0,422860	
38,115000	0,66	-0,420730	
38,126000	0,66	-0,418330	
38,137000	0,66	-0,416730	
38,148000	0,66	-0,413330	
38,159000	0,66	-0,411190	
38,170000	0,66	-0,430610	
38,181000	0,66	-0,443880	
38,192000	0,66	-0,446870	
38,203000	0,66	-0,448880	
38,214000	0,66	-0,457550	
38,225000	0,66	-0,456080	
38,236000	0,66	-0,443910	
38,247000	0,66	-0,451450	
38,258000	0,66	-0,448560	
38,269000	0,66	-0,445400	
38,280000	0,66	-0,435660	
38,291000	0,66	-0,442990	
38,302000	0,66	-0,434550	
38,313000	0,66	-0,434980	
38,324000	0,66	-0,429330	
38,335000	0,66	-0,416290	
38,346000	0,66	-0,413410	
38,357000	0,66	-0,409300	
38,368000	0,66	-0,406090	
38,379000	0,66	-0,414550	
38,390000	0,66	-0,426230	
38,401000	0,66	-0,440880	
38,412000	0,66	-0,434420	
38,423000	0,66	-0,430570	
38,434000	0,66	-0,429680	
38,445000	0,66	-0,425530	
38,456000	0,66	-0,431270	
38,467000	0,66	-0,437570	
38,478000	0,66	-0,435590	
38,489000	0,66	-0,425930	
38,500000	0,66	-0,424820	
38,511000	0,66	-0,431130	
38,522000	0,66	-0,431640	
38,533000	0,66	-0,441430	
38,544000	0,66	-0,442900	
38,555000	0,66	-0,430040	
38,566000	0,66	-0,432670	
38,577000	0,66	-0,448340	
38,588000	0,66	-0,454750	
38,599000	0,66	-0,459020	
38,610000	0,66	-0,463300	
38,621000	0,66	-0,466850	
38,632000	0,66	-0,460760	
38,643000	0,66	-0,454040	
38,654000	0,66	-0,447290	
38,665000	0,66	-0,441450	
38,676000	0,66	-0,437220	
38,687000	0,66	-0,444070	
38,698000	0,66	-0,451860	
38,709000	0,66	-0,455250	
38,720000	0,66	-0,462610	
38,731000	0,66	-0,463290	
38,742000	0,66	-0,450160	
38,753000	0,66	-0,444260	
38,764000	0,66	-0,450500	
38,775000	0,66	-0,449350	
38,786000	0,66	-0,443740	
38,797000	0,66	-0,438990	
38,808000	0,66	-0,448230	
38,819000	0,66	-0,456280	
38,830000	0,66	-0,462030	
38,841000	0,66	-0,466030	
38,852000	0,66	-0,462170	
38,863000	0,66	-0,464690	
38,874000	0,66	-0,458130	
38,885000	0,66	-0,457860	
38,896000	0,66	-0,459750	
38,907000	0,66	-0,458490	
38,918000	0,66	-0,458360	
38,929000	0,66	-0,457100	
38,940000	0,66	-0,459820	
38,951000	0,66	-0,465860	
38,962000	0,66	-0,459080	
38,973000	0,66	-0,454630	
38,984000	0,66	-0,459980	
38,995000	0,66	-0,463770	
39,006000	0,66	-0,457810	
39,017000	0,66	-0,467980	
39,028000	0,66	-0,464470	
39,039000	0,66	-0,461970	
39,050000	0,66	-0,472970	
39,061000	0,66	-0,469800	
39,072000	0,66	-0,467720	
39,083000	0,66	-0,469530	
39,094000	0,66	-0,459330	
39,105000	0,66	-0,440900	
39,116000	0,66	-0,450690	
39,127000	0,66	-0,465580	
39,138000	0,66	-0,467530	
39,149000	0,66	-0,464900	
39,160000	0,66	-0,464480	
39,171000	0,66	-0,470680	
39,182000	0,66	-0,468530	
39,193000	0,66	-0,461130	
39,204000	0,66	-0,466830	
39,215000	0,66	-0,461830	
39,226000	0,66	-0,460460	
39,237000	0,66	-0,468070	
39,248000	0,66	-0,477630	
39,259000	0,66	-0,466640	
39,270000	0,66	-0,461400	
39,281000	0,66	-0,465240	
39,292000	0,66	-0,467150	
39,303000	0,66	-0,456400	
39,314000	0,66	-0,446580	
39,325000	0,66	-0,447670	
39,336000	0,66	-0,447670	
39,347000	0,66	-0,437950	
39,358000	0,66	-0,444630	
39,369000	0,66	-0,451350	
39,380000	0,66	-0,452350	
39,391000	0,66	-0,451710	
39,402000	0,66	-0,447510	
39,413000	0,66	-0,455420	
39,424000	0,66	-0,462970	
39,435000	0,66	-0,457830	
39,446000	0,66	-0,456000	
39,457000	0,66	-0,464140	
39,468000	0,66	-0,465230	
39,479000	0,66	-0,452450	
39,490000	0,66	-0,446550	
39,501000	0,66	-0,445330	
39,512000	0,66	-0,436690	
39,523000	0,66	-0,437260	
39,534000	0,66	-0,451960	
39,545000	0,66	-0,463300	
39,556000	0,66	-0,466650	
39,567000	0,66	-0,464160	
39,578000	0,66	-0,457750	
39,589000	0,66	-0,460040	
39,600000	0,66	-0,466050	
39,611000	0,66	-0,461780	
39,622000	0,66	-0,456740	
39,633000	0,66	-0,475620	
39,644000	0,66	-0,476450	
39,655000	0,66	-0,473120	
39,666000	0,66	-0,468890	
39,677000	0,66	-0,468080	
39,688000	0,66	-0,470240	
39,699000	0,66	-0,475290	
39,710000	0,66	-0,487100	
39,721000	0,66	-0,479090	
39,732000	0,66	-0,472230	
39,743000	0,66	-0,470320	
39,754000	0,66	-0,469240	
39,765000	0,66	-0,473070	
39,776000	0,66	-0,469660	
39,787000	0,66	-0,454530	
39,798000	0,66	-0,458720	
39,809000	0,66	-0,452060	
39,820000	0,66	-0,452420	
39,831000	0,66	-0,453290	
39,842000	0,66	-0,453710	
39,853000	0,66	-0,462280	
39,864000	0,66	-0,452980	
39,875000	0,66	-0,448350	
39,886000	0,66	-0,439230	
39,897000	0,66	-0,437240	
39,908000	0,66	-0,440250	
39,919000	0,66	-0,446730	
39,930000	0,66	-0,456040	
39,941000	0,66	-0,455920	
39,952000	0,66	-0,456690	
39,963000	0,66	-0,469450	
39,974000	0,66	-0,478980	
39,985000	0,66	-0,476040	
39,996000	0,66	-0,478520	
40,007000	0,66	-0,470370	
