Filepath	C:\Chromel\data\Analytik\Walther group\Guido\mechanosense\GCR260.SEQ\UV_VIS_1.CHL\7494.acd
Channel	UV_VIS_1

Sample Information:
Datasource	PC-8NN4M2J_local
Sequence	Analytik\Walther group\Guido\mechanosense\GCR260.SEQ
Sample	200717-14
Sample Number	320
Sample Position	RC4
Sample ID	7494
Comment	260-P5-5
QNT method	default
PGM file	single-component-3 40min 60C 0,4mLmin
Type	unknown
Status	finished
Date	17.07.2020
Time	20:20:38
Injection Volume (µl)	100,00
Dilution Factor	1,000000
Amount	1,000000
Weight	1,000000

Raw Data Header Information:
Time Min. (min)	0,000
Time Max. (min)	40,007
Raw-Time Min. (min)	0,000
Raw-Time Max. (min)	40,007
Data Points	3638
Detector	VWD3000.dll
Preferred Read Mode	Unknown
Write Mode	Unknown
Data System	Chromeleon
Version High	06
Version Low	80
Build No.	3160
File Format Version	11
Generation Type	8
File ID	239054205
File Status	16
GUID	e6d2c07c-c859-11ea-b409-00184d71f7da
Signal Factor	0,000010
Signal Dimension	mAU
Signal Unit	Absorbance
Signal Min.	0,011080
Signal Max.	334,299430
Channel Name	UV_VIS_1
Driver Name	VWD-3x00 Detector
Min. Step	66
Max. Step	66
Average Step	66

Signal Parameter Information:
Signal Info	WVL:260 nm
Wavelength	260 nm
	 




















Raw Data:
Time(min)	Step(sec)	Value(mAU)
0,000000	0,00	0,036160	
0,011000	0,66	0,036450	
0,022000	0,66	0,039350	
0,033000	0,66	0,039430	
0,044000	0,66	0,034260	
0,055000	0,66	0,032300	
0,066000	0,66	0,032970	
0,077000	0,66	0,031380	
0,088000	0,66	0,029950	
0,099000	0,66	0,031730	
0,110000	0,66	0,034830	
0,121000	0,66	0,034360	
0,132000	0,66	0,034750	
0,143000	0,66	0,035370	
0,154000	0,66	0,034770	
0,165000	0,66	0,034940	
0,176000	0,66	0,034380	
0,187000	0,66	0,033380	
0,198000	0,66	0,032020	
0,209000	0,66	0,032580	
0,220000	0,66	0,033400	
0,231000	0,66	0,031830	
0,242000	0,66	0,031920	
0,253000	0,66	0,032930	
0,264000	0,66	0,032340	
0,275000	0,66	0,031840	
0,286000	0,66	0,029480	
0,297000	0,66	0,025290	
0,308000	0,66	0,025820	
0,319000	0,66	0,025180	
0,330000	0,66	0,021880	
0,341000	0,66	0,019420	
0,352000	0,66	0,018710	
0,363000	0,66	0,017690	
0,374000	0,66	0,016380	
0,385000	0,66	0,014230	
0,396000	0,66	0,011080	
0,407000	0,66	0,012060	
0,418000	0,66	0,015480	
0,429000	0,66	0,016830	
0,440000	0,66	0,017490	
0,451000	0,66	0,019900	
0,462000	0,66	0,021030	
0,473000	0,66	0,019040	
0,484000	0,66	0,019920	
0,495000	0,66	0,023510	
0,506000	0,66	0,027330	
0,517000	0,66	0,027880	
0,528000	0,66	0,029180	
0,539000	0,66	0,027140	
0,550000	0,66	0,023730	
0,561000	0,66	0,023080	
0,572000	0,66	0,023500	
0,583000	0,66	0,024180	
0,594000	0,66	0,022310	
0,605000	0,66	0,021870	
0,616000	0,66	0,023060	
0,627000	0,66	0,024360	
0,638000	0,66	0,026900	
0,649000	0,66	0,025330	
0,660000	0,66	0,024790	
0,671000	0,66	0,022630	
0,682000	0,66	0,022160	
0,693000	0,66	0,023790	
0,704000	0,66	0,020810	
0,715000	0,66	0,022310	
0,726000	0,66	0,022990	
0,737000	0,66	0,024740	
0,748000	0,66	0,023870	
0,759000	0,66	0,026120	
0,770000	0,66	0,027400	
0,781000	0,66	0,026990	
0,792000	0,66	0,026250	
0,803000	0,66	0,025250	
0,814000	0,66	0,026940	
0,825000	0,66	0,027250	
0,836000	0,66	0,026460	
0,847000	0,66	0,027770	
0,858000	0,66	0,028950	
0,869000	0,66	0,029710	
0,880000	0,66	0,028000	
0,891000	0,66	0,026510	
0,902000	0,66	0,029590	
0,913000	0,66	0,031770	
0,924000	0,66	0,031360	
0,935000	0,66	0,031840	
0,946000	0,66	0,029620	
0,957000	0,66	0,028090	
0,968000	0,66	0,031590	
0,979000	0,66	0,034290	
0,990000	0,66	0,034450	
1,001000	0,66	0,034140	
1,012000	0,66	0,035050	
1,023000	0,66	0,037540	
1,034000	0,66	0,038310	
1,045000	0,66	0,035630	
1,056000	0,66	0,033710	
1,067000	0,66	0,035120	
1,078000	0,66	0,037480	
1,089000	0,66	0,037900	
1,100000	0,66	0,036640	
1,111000	0,66	0,036620	
1,122000	0,66	0,037520	
1,133000	0,66	0,039590	
1,144000	0,66	0,042630	
1,155000	0,66	0,043330	
1,166000	0,66	0,044000	
1,177000	0,66	0,044220	
1,188000	0,66	0,045610	
1,199000	0,66	0,047700	
1,210000	0,66	0,048210	
1,221000	0,66	0,048170	
1,232000	0,66	0,045800	
1,243000	0,66	0,041670	
1,254000	0,66	0,041790	
1,265000	0,66	0,057650	
1,276000	0,66	0,111950	
1,287000	0,66	0,316080	
1,298000	0,66	0,977790	
1,309000	0,66	2,699400	
1,320000	0,66	6,096100	
1,331000	0,66	11,114020	
1,342000	0,66	17,002710	
1,353000	0,66	22,644310	
1,364000	0,66	27,154290	
1,375000	0,66	30,138130	
1,386000	0,66	31,665310	
1,397000	0,66	32,056620	
1,408000	0,66	31,699520	
1,419000	0,66	30,924060	
1,430000	0,66	29,946750	
1,441000	0,66	28,900730	
1,452000	0,66	27,846860	
1,463000	0,66	26,817950	
1,474000	0,66	25,813390	
1,485000	0,66	24,819960	
1,496000	0,66	23,824660	
1,507000	0,66	22,807120	
1,518000	0,66	21,744750	
1,529000	0,66	20,628860	
1,540000	0,66	19,463390	
1,551000	0,66	18,255580	
1,562000	0,66	17,016770	
1,573000	0,66	15,756080	
1,584000	0,66	14,501700	
1,595000	0,66	13,285920	
1,606000	0,66	12,132480	
1,617000	0,66	11,066340	
1,628000	0,66	10,105050	
1,639000	0,66	9,261720	
1,650000	0,66	8,532840	
1,661000	0,66	7,909600	
1,672000	0,66	7,375300	
1,683000	0,66	6,911800	
1,694000	0,66	6,503570	
1,705000	0,66	6,137240	
1,716000	0,66	5,803950	
1,727000	0,66	5,495330	
1,738000	0,66	5,201970	
1,749000	0,66	4,925000	
1,760000	0,66	4,664400	
1,771000	0,66	4,417700	
1,782000	0,66	4,184090	
1,793000	0,66	3,964810	
1,804000	0,66	3,761220	
1,815000	0,66	3,572020	
1,826000	0,66	3,396340	
1,837000	0,66	3,230910	
1,848000	0,66	3,075050	
1,859000	0,66	2,932920	
1,870000	0,66	2,802930	
1,881000	0,66	2,683070	
1,892000	0,66	2,573430	
1,903000	0,66	2,472100	
1,914000	0,66	2,381910	
1,925000	0,66	2,297930	
1,936000	0,66	2,219120	
1,947000	0,66	2,142450	
1,958000	0,66	2,066820	
1,969000	0,66	1,995440	
1,980000	0,66	1,926710	
1,991000	0,66	1,860010	
2,002000	0,66	1,796040	
2,013000	0,66	1,733180	
2,024000	0,66	1,673130	
2,035000	0,66	1,617550	
2,046000	0,66	1,564420	
2,057000	0,66	1,513460	
2,068000	0,66	1,464320	
2,079000	0,66	1,416400	
2,090000	0,66	1,366980	
2,101000	0,66	1,313270	
2,112000	0,66	1,263220	
2,123000	0,66	1,213900	
2,134000	0,66	1,158320	
2,145000	0,66	1,099740	
2,156000	0,66	1,044870	
2,167000	0,66	1,057720	
2,178000	0,66	1,197350	
2,189000	0,66	1,344570	
2,200000	0,66	1,371900	
2,211000	0,66	1,269340	
2,222000	0,66	1,105260	
2,233000	0,66	0,956550	
2,244000	0,66	0,849230	
2,255000	0,66	0,783990	
2,266000	0,66	0,743420	
2,277000	0,66	0,719440	
2,288000	0,66	0,707220	
2,299000	0,66	0,696640	
2,310000	0,66	0,688910	
2,321000	0,66	0,679210	
2,332000	0,66	0,672180	
2,343000	0,66	0,663280	
2,354000	0,66	0,652410	
2,365000	0,66	0,641800	
2,376000	0,66	0,631380	
2,387000	0,66	0,619320	
2,398000	0,66	0,608850	
2,409000	0,66	0,599170	
2,420000	0,66	0,588560	
2,431000	0,66	0,579090	
2,442000	0,66	0,568140	
2,453000	0,66	0,557680	
2,464000	0,66	0,549980	
2,475000	0,66	0,541210	
2,486000	0,66	0,531110	
2,497000	0,66	0,522480	
2,508000	0,66	0,516980	
2,519000	0,66	0,512250	
2,530000	0,66	0,504800	
2,541000	0,66	0,494660	
2,552000	0,66	0,484230	
2,563000	0,66	0,474630	
2,574000	0,66	0,467350	
2,585000	0,66	0,461810	
2,596000	0,66	0,454950	
2,607000	0,66	0,447910	
2,618000	0,66	0,443250	
2,629000	0,66	0,440280	
2,640000	0,66	0,434180	
2,651000	0,66	0,429540	
2,662000	0,66	0,424270	
2,673000	0,66	0,420380	
2,684000	0,66	0,418430	
2,695000	0,66	0,416760	
2,706000	0,66	0,410170	
2,717000	0,66	0,403820	
2,728000	0,66	0,400300	
2,739000	0,66	0,397300	
2,750000	0,66	0,396070	
2,761000	0,66	0,389800	
2,772000	0,66	0,384750	
2,783000	0,66	0,380450	
2,794000	0,66	0,378580	
2,805000	0,66	0,376860	
2,816000	0,66	0,373230	
2,827000	0,66	0,368350	
2,838000	0,66	0,365670	
2,849000	0,66	0,364170	
2,860000	0,66	0,362220	
2,871000	0,66	0,359890	
2,882000	0,66	0,354530	
2,893000	0,66	0,349920	
2,904000	0,66	0,346530	
2,915000	0,66	0,344880	
2,926000	0,66	0,341790	
2,937000	0,66	0,334960	
2,948000	0,66	0,328480	
2,959000	0,66	0,323180	
2,970000	0,66	0,313610	
2,981000	0,66	0,301360	
2,992000	0,66	0,289020	
3,003000	0,66	0,279460	
3,014000	0,66	0,270580	
3,025000	0,66	0,262310	
3,036000	0,66	0,256060	
3,047000	0,66	0,253050	
3,058000	0,66	0,253030	
3,069000	0,66	0,253090	
3,080000	0,66	0,250310	
3,091000	0,66	0,247500	
3,102000	0,66	0,246660	
3,113000	0,66	0,245390	
3,124000	0,66	0,246140	
3,135000	0,66	0,250040	
3,146000	0,66	0,251180	
3,157000	0,66	0,249040	
3,168000	0,66	0,248590	
3,179000	0,66	0,249460	
3,190000	0,66	0,250760	
3,201000	0,66	0,251800	
3,212000	0,66	0,249820	
3,223000	0,66	0,246680	
3,234000	0,66	0,245150	
3,245000	0,66	0,245190	
3,256000	0,66	0,245820	
3,267000	0,66	0,245410	
3,278000	0,66	0,238780	
3,289000	0,66	0,236470	
3,300000	0,66	0,236710	
3,311000	0,66	0,234370	
3,322000	0,66	0,227730	
3,333000	0,66	0,227460	
3,344000	0,66	0,227390	
3,355000	0,66	0,227420	
3,366000	0,66	0,227250	
3,377000	0,66	0,223010	
3,388000	0,66	0,223670	
3,399000	0,66	0,222750	
3,410000	0,66	0,218730	
3,421000	0,66	0,218290	
3,432000	0,66	0,218460	
3,443000	0,66	0,218530	
3,454000	0,66	0,215790	
3,465000	0,66	0,216130	
3,476000	0,66	0,216360	
3,487000	0,66	0,214190	
3,498000	0,66	0,212460	
3,509000	0,66	0,213500	
3,520000	0,66	0,216910	
3,531000	0,66	0,216270	
3,542000	0,66	0,214830	
3,553000	0,66	0,214060	
3,564000	0,66	0,210600	
3,575000	0,66	0,206850	
3,586000	0,66	0,206880	
3,597000	0,66	0,207720	
3,608000	0,66	0,204500	
3,619000	0,66	0,202300	
3,630000	0,66	0,199430	
3,641000	0,66	0,199670	
3,652000	0,66	0,200020	
3,663000	0,66	0,199590	
3,674000	0,66	0,200500	
3,685000	0,66	0,200090	
3,696000	0,66	0,196920	
3,707000	0,66	0,191750	
3,718000	0,66	0,192010	
3,729000	0,66	0,194870	
3,740000	0,66	0,194510	
3,751000	0,66	0,195840	
3,762000	0,66	0,196080	
3,773000	0,66	0,194290	
3,784000	0,66	0,194520	
3,795000	0,66	0,193540	
3,806000	0,66	0,190830	
3,817000	0,66	0,188710	
3,828000	0,66	0,187260	
3,839000	0,66	0,188270	
3,850000	0,66	0,192250	
3,861000	0,66	0,192990	
3,872000	0,66	0,191830	
3,883000	0,66	0,189190	
3,894000	0,66	0,186350	
3,905000	0,66	0,186240	
3,916000	0,66	0,184960	
3,927000	0,66	0,186450	
3,938000	0,66	0,186160	
3,949000	0,66	0,188120	
3,960000	0,66	0,187950	
3,971000	0,66	0,187320	
3,982000	0,66	0,186060	
3,993000	0,66	0,185830	
4,004000	0,66	0,187050	
4,015000	0,66	0,187600	
4,026000	0,66	0,185340	
4,037000	0,66	0,181770	
4,048000	0,66	0,178960	
4,059000	0,66	0,179370	
4,070000	0,66	0,181390	
4,081000	0,66	0,182210	
4,092000	0,66	0,181880	
4,103000	0,66	0,181980	
4,114000	0,66	0,179860	
4,125000	0,66	0,178740	
4,136000	0,66	0,178990	
4,147000	0,66	0,178890	
4,158000	0,66	0,178240	
4,169000	0,66	0,178600	
4,180000	0,66	0,181250	
4,191000	0,66	0,179430	
4,202000	0,66	0,176340	
4,213000	0,66	0,173830	
4,224000	0,66	0,175730	
4,235000	0,66	0,179500	
4,246000	0,66	0,178360	
4,257000	0,66	0,175660	
4,268000	0,66	0,172220	
4,279000	0,66	0,171970	
4,290000	0,66	0,174530	
4,301000	0,66	0,177040	
4,312000	0,66	0,176060	
4,323000	0,66	0,175660	
4,334000	0,66	0,175540	
4,345000	0,66	0,175840	
4,356000	0,66	0,179280	
4,367000	0,66	0,177290	
4,378000	0,66	0,173260	
4,389000	0,66	0,172260	
4,400000	0,66	0,169800	
4,411000	0,66	0,169510	
4,422000	0,66	0,170460	
4,433000	0,66	0,171210	
4,444000	0,66	0,171630	
4,455000	0,66	0,169770	
4,466000	0,66	0,169820	
4,477000	0,66	0,170240	
4,488000	0,66	0,169570	
4,499000	0,66	0,169550	
4,510000	0,66	0,169550	
4,521000	0,66	0,169220	
4,532000	0,66	0,168370	
4,543000	0,66	0,168250	
4,554000	0,66	0,167400	
4,565000	0,66	0,167310	
4,576000	0,66	0,168050	
4,587000	0,66	0,167240	
4,598000	0,66	0,168160	
4,609000	0,66	0,167700	
4,620000	0,66	0,166260	
4,631000	0,66	0,166640	
4,642000	0,66	0,166690	
4,653000	0,66	0,166150	
4,664000	0,66	0,167300	
4,675000	0,66	0,166990	
4,686000	0,66	0,166580	
4,697000	0,66	0,165520	
4,708000	0,66	0,165170	
4,719000	0,66	0,165320	
4,730000	0,66	0,164390	
4,741000	0,66	0,164860	
4,752000	0,66	0,165850	
4,763000	0,66	0,167130	
4,774000	0,66	0,168650	
4,785000	0,66	0,171040	
4,796000	0,66	0,170550	
4,807000	0,66	0,168230	
4,818000	0,66	0,168840	
4,829000	0,66	0,171660	
4,840000	0,66	0,169570	
4,851000	0,66	0,169230	
4,862000	0,66	0,169160	
4,873000	0,66	0,167940	
4,884000	0,66	0,168610	
4,895000	0,66	0,169560	
4,906000	0,66	0,170680	
4,917000	0,66	0,168480	
4,928000	0,66	0,167910	
4,939000	0,66	0,173010	
4,950000	0,66	0,170010	
4,961000	0,66	0,166230	
4,972000	0,66	0,168180	
4,983000	0,66	0,171660	
4,994000	0,66	0,170500	
5,005000	0,66	0,170550	
5,016000	0,66	0,172770	
5,027000	0,66	0,172350	
5,038000	0,66	0,172870	
5,049000	0,66	0,172910	
5,060000	0,66	0,169220	
5,071000	0,66	0,171560	
5,082000	0,66	0,172970	
5,093000	0,66	0,172730	
5,104000	0,66	0,171470	
5,115000	0,66	0,173110	
5,126000	0,66	0,171770	
5,137000	0,66	0,169920	
5,148000	0,66	0,170580	
5,159000	0,66	0,169750	
5,170000	0,66	0,168650	
5,181000	0,66	0,171710	
5,192000	0,66	0,174950	
5,203000	0,66	0,175370	
5,214000	0,66	0,173700	
5,225000	0,66	0,174190	
5,236000	0,66	0,177010	
5,247000	0,66	0,177030	
5,258000	0,66	0,176350	
5,269000	0,66	0,176530	
5,280000	0,66	0,175520	
5,291000	0,66	0,173690	
5,302000	0,66	0,172080	
5,313000	0,66	0,172820	
5,324000	0,66	0,175510	
5,335000	0,66	0,178070	
5,346000	0,66	0,179310	
5,357000	0,66	0,180010	
5,368000	0,66	0,181670	
5,379000	0,66	0,185480	
5,390000	0,66	0,189970	
5,401000	0,66	0,193060	
5,412000	0,66	0,194960	
5,423000	0,66	0,199040	
5,434000	0,66	0,206360	
5,445000	0,66	0,215420	
5,456000	0,66	0,224310	
5,467000	0,66	0,234340	
5,478000	0,66	0,247200	
5,489000	0,66	0,263590	
5,500000	0,66	0,280160	
5,511000	0,66	0,293830	
5,522000	0,66	0,306970	
5,533000	0,66	0,324820	
5,544000	0,66	0,339670	
5,555000	0,66	0,358940	
5,566000	0,66	0,369950	
5,577000	0,66	0,384840	
5,588000	0,66	0,393790	
5,599000	0,66	0,400880	
5,610000	0,66	0,403730	
5,621000	0,66	0,405740	
5,632000	0,66	0,403580	
5,643000	0,66	0,398550	
5,654000	0,66	0,389960	
5,665000	0,66	0,376890	
5,676000	0,66	0,360700	
5,687000	0,66	0,345000	
5,698000	0,66	0,331360	
5,709000	0,66	0,317680	
5,720000	0,66	0,303410	
5,731000	0,66	0,290520	
5,742000	0,66	0,277130	
5,753000	0,66	0,266190	
5,764000	0,66	0,256700	
5,775000	0,66	0,249340	
5,786000	0,66	0,244770	
5,797000	0,66	0,241780	
5,808000	0,66	0,238590	
5,819000	0,66	0,234380	
5,830000	0,66	0,230930	
5,841000	0,66	0,227950	
5,852000	0,66	0,226050	
5,863000	0,66	0,224470	
5,874000	0,66	0,223320	
5,885000	0,66	0,223710	
5,896000	0,66	0,224860	
5,907000	0,66	0,224690	
5,918000	0,66	0,225290	
5,929000	0,66	0,226560	
5,940000	0,66	0,225980	
5,951000	0,66	0,225840	
5,962000	0,66	0,227720	
5,973000	0,66	0,232580	
5,984000	0,66	0,238590	
5,995000	0,66	0,241680	
6,006000	0,66	0,242850	
6,017000	0,66	0,244560	
6,028000	0,66	0,249520	
6,039000	0,66	0,251080	
6,050000	0,66	0,251090	
6,061000	0,66	0,254830	
6,072000	0,66	0,254000	
6,083000	0,66	0,252820	
6,094000	0,66	0,253040	
6,105000	0,66	0,258270	
6,116000	0,66	0,261280	
6,127000	0,66	0,263900	
6,138000	0,66	0,266510	
6,149000	0,66	0,269370	
6,160000	0,66	0,271580	
6,171000	0,66	0,270200	
6,182000	0,66	0,268530	
6,193000	0,66	0,270360	
6,204000	0,66	0,272430	
6,215000	0,66	0,274600	
6,226000	0,66	0,274880	
6,237000	0,66	0,276310	
6,248000	0,66	0,283710	
6,259000	0,66	0,287370	
6,270000	0,66	0,291500	
6,281000	0,66	0,293140	
6,292000	0,66	0,295900	
6,303000	0,66	0,301350	
6,314000	0,66	0,299240	
6,325000	0,66	0,301650	
6,336000	0,66	0,306470	
6,347000	0,66	0,313080	
6,358000	0,66	0,318220	
6,369000	0,66	0,320590	
6,380000	0,66	0,321580	
6,391000	0,66	0,320600	
6,402000	0,66	0,323230	
6,413000	0,66	0,324860	
6,424000	0,66	0,330800	
6,435000	0,66	0,333620	
6,446000	0,66	0,335960	
6,457000	0,66	0,338560	
6,468000	0,66	0,341020	
6,479000	0,66	0,343380	
6,490000	0,66	0,343840	
6,501000	0,66	0,346500	
6,512000	0,66	0,351880	
6,523000	0,66	0,356810	
6,534000	0,66	0,359760	
6,545000	0,66	0,361620	
6,556000	0,66	0,362250	
6,567000	0,66	0,362050	
6,578000	0,66	0,364880	
6,589000	0,66	0,368000	
6,600000	0,66	0,370170	
6,611000	0,66	0,373670	
6,622000	0,66	0,378630	
6,633000	0,66	0,381860	
6,644000	0,66	0,382380	
6,655000	0,66	0,383210	
6,666000	0,66	0,385790	
6,677000	0,66	0,387980	
6,688000	0,66	0,388620	
6,699000	0,66	0,389400	
6,710000	0,66	0,391080	
6,721000	0,66	0,392970	
6,732000	0,66	0,392650	
6,743000	0,66	0,392920	
6,754000	0,66	0,395910	
6,765000	0,66	0,400110	
6,776000	0,66	0,402810	
6,787000	0,66	0,405910	
6,798000	0,66	0,410140	
6,809000	0,66	0,415400	
6,820000	0,66	0,417510	
6,831000	0,66	0,419180	
6,842000	0,66	0,419020	
6,853000	0,66	0,417990	
6,864000	0,66	0,418870	
6,875000	0,66	0,422460	
6,886000	0,66	0,422410	
6,897000	0,66	0,423260	
6,908000	0,66	0,424990	
6,919000	0,66	0,428540	
6,930000	0,66	0,431640	
6,941000	0,66	0,432400	
6,952000	0,66	0,432660	
6,963000	0,66	0,432050	
6,974000	0,66	0,433380	
6,985000	0,66	0,433180	
6,996000	0,66	0,433800	
7,007000	0,66	0,435120	
7,018000	0,66	0,436680	
7,029000	0,66	0,438210	
7,040000	0,66	0,439620	
7,051000	0,66	0,443710	
7,062000	0,66	0,442770	
7,073000	0,66	0,442760	
7,084000	0,66	0,444630	
7,095000	0,66	0,450120	
7,106000	0,66	0,449050	
7,117000	0,66	0,448950	
7,128000	0,66	0,452000	
7,139000	0,66	0,455570	
7,150000	0,66	0,458740	
7,161000	0,66	0,460300	
7,172000	0,66	0,462530	
7,183000	0,66	0,465390	
7,194000	0,66	0,464530	
7,205000	0,66	0,462940	
7,216000	0,66	0,460290	
7,227000	0,66	0,461410	
7,238000	0,66	0,465640	
7,249000	0,66	0,468940	
7,260000	0,66	0,471850	
7,271000	0,66	0,473640	
7,282000	0,66	0,473480	
7,293000	0,66	0,473390	
7,304000	0,66	0,473380	
7,315000	0,66	0,472160	
7,326000	0,66	0,471580	
7,337000	0,66	0,473880	
7,348000	0,66	0,479240	
7,359000	0,66	0,482860	
7,370000	0,66	0,483470	
7,381000	0,66	0,485360	
7,392000	0,66	0,486120	
7,403000	0,66	0,487140	
7,414000	0,66	0,489690	
7,425000	0,66	0,489640	
7,436000	0,66	0,487380	
7,447000	0,66	0,489340	
7,458000	0,66	0,493340	
7,469000	0,66	0,494730	
7,480000	0,66	0,498340	
7,491000	0,66	0,498870	
7,502000	0,66	0,499500	
7,513000	0,66	0,502730	
7,524000	0,66	0,506020	
7,535000	0,66	0,507440	
7,546000	0,66	0,508610	
7,557000	0,66	0,506030	
7,568000	0,66	0,507050	
7,579000	0,66	0,511430	
7,590000	0,66	0,515460	
7,601000	0,66	0,518140	
7,612000	0,66	0,518600	
7,623000	0,66	0,522340	
7,634000	0,66	0,525310	
7,645000	0,66	0,527760	
7,656000	0,66	0,526730	
7,667000	0,66	0,528190	
7,678000	0,66	0,529080	
7,689000	0,66	0,528810	
7,700000	0,66	0,533150	
7,711000	0,66	0,534380	
7,722000	0,66	0,534550	
7,733000	0,66	0,535820	
7,744000	0,66	0,538410	
7,755000	0,66	0,539130	
7,766000	0,66	0,540520	
7,777000	0,66	0,543140	
7,788000	0,66	0,543450	
7,799000	0,66	0,538680	
7,810000	0,66	0,539650	
7,821000	0,66	0,544960	
7,832000	0,66	0,549540	
7,843000	0,66	0,552130	
7,854000	0,66	0,552570	
7,865000	0,66	0,555780	
7,876000	0,66	0,558310	
7,887000	0,66	0,562180	
7,898000	0,66	0,563500	
7,909000	0,66	0,564870	
7,920000	0,66	0,564610	
7,931000	0,66	0,565560	
7,942000	0,66	0,569930	
7,953000	0,66	0,571300	
7,964000	0,66	0,574400	
7,975000	0,66	0,576200	
7,986000	0,66	0,574380	
7,997000	0,66	0,573960	
8,008000	0,66	0,574520	
8,019000	0,66	0,575090	
8,030000	0,66	0,577500	
8,041000	0,66	0,578680	
8,052000	0,66	0,578190	
8,063000	0,66	0,580100	
8,074000	0,66	0,583020	
8,085000	0,66	0,582970	
8,096000	0,66	0,583240	
8,107000	0,66	0,585990	
8,118000	0,66	0,585250	
8,129000	0,66	0,586690	
8,140000	0,66	0,589670	
8,151000	0,66	0,593260	
8,162000	0,66	0,595300	
8,173000	0,66	0,595860	
8,184000	0,66	0,596780	
8,195000	0,66	0,597760	
8,206000	0,66	0,599480	
8,217000	0,66	0,602350	
8,228000	0,66	0,603750	
8,239000	0,66	0,609340	
8,250000	0,66	0,612990	
8,261000	0,66	0,612900	
8,272000	0,66	0,614200	
8,283000	0,66	0,612810	
8,294000	0,66	0,613220	
8,305000	0,66	0,614750	
8,316000	0,66	0,617880	
8,327000	0,66	0,620450	
8,338000	0,66	0,619470	
8,349000	0,66	0,620650	
8,360000	0,66	0,622890	
8,371000	0,66	0,625820	
8,382000	0,66	0,624660	
8,393000	0,66	0,626050	
8,404000	0,66	0,630210	
8,415000	0,66	0,634360	
8,426000	0,66	0,637210	
8,437000	0,66	0,639410	
8,448000	0,66	0,641960	
8,459000	0,66	0,644780	
8,470000	0,66	0,648420	
8,481000	0,66	0,648110	
8,492000	0,66	0,647340	
8,503000	0,66	0,648950	
8,514000	0,66	0,651640	
8,525000	0,66	0,652980	
8,536000	0,66	0,653850	
8,547000	0,66	0,658260	
8,558000	0,66	0,662800	
8,569000	0,66	0,665460	
8,580000	0,66	0,664920	
8,591000	0,66	0,667170	
8,602000	0,66	0,668370	
8,613000	0,66	0,668110	
8,624000	0,66	0,670370	
8,635000	0,66	0,671800	
8,646000	0,66	0,672630	
8,657000	0,66	0,675020	
8,668000	0,66	0,678310	
8,679000	0,66	0,681580	
8,690000	0,66	0,681690	
8,701000	0,66	0,682320	
8,712000	0,66	0,684740	
8,723000	0,66	0,687250	
8,734000	0,66	0,688980	
8,745000	0,66	0,690390	
8,756000	0,66	0,691490	
8,767000	0,66	0,692080	
8,778000	0,66	0,694370	
8,789000	0,66	0,696590	
8,800000	0,66	0,700280	
8,811000	0,66	0,701550	
8,822000	0,66	0,701680	
8,833000	0,66	0,703240	
8,844000	0,66	0,708180	
8,855000	0,66	0,714720	
8,866000	0,66	0,717350	
8,877000	0,66	0,716790	
8,888000	0,66	0,716880	
8,899000	0,66	0,717840	
8,910000	0,66	0,721170	
8,921000	0,66	0,723270	
8,932000	0,66	0,724870	
8,943000	0,66	0,730370	
8,954000	0,66	0,735340	
8,965000	0,66	0,734600	
8,976000	0,66	0,732960	
8,987000	0,66	0,734800	
8,998000	0,66	0,735400	
9,009000	0,66	0,734350	
9,020000	0,66	0,739700	
9,031000	0,66	0,745610	
9,042000	0,66	0,744940	
9,053000	0,66	0,746420	
9,064000	0,66	0,749490	
9,075000	0,66	0,749830	
9,086000	0,66	0,751620	
9,097000	0,66	0,748830	
9,108000	0,66	0,753140	
9,119000	0,66	0,755540	
9,130000	0,66	0,756210	
9,141000	0,66	0,757350	
9,152000	0,66	0,759190	
9,163000	0,66	0,761680	
9,174000	0,66	0,764540	
9,185000	0,66	0,765520	
9,196000	0,66	0,766480	
9,207000	0,66	0,768520	
9,218000	0,66	0,769330	
9,229000	0,66	0,772770	
9,240000	0,66	0,775550	
9,251000	0,66	0,779290	
9,262000	0,66	0,777430	
9,273000	0,66	0,776080	
9,284000	0,66	0,781480	
9,295000	0,66	0,783260	
9,306000	0,66	0,783020	
9,317000	0,66	0,783430	
9,328000	0,66	0,785490	
9,339000	0,66	0,788720	
9,350000	0,66	0,791080	
9,361000	0,66	0,793440	
9,372000	0,66	0,793320	
9,383000	0,66	0,792130	
9,394000	0,66	0,793300	
9,405000	0,66	0,795150	
9,416000	0,66	0,798450	
9,427000	0,66	0,802540	
9,438000	0,66	0,805520	
9,449000	0,66	0,809700	
9,460000	0,66	0,815400	
9,471000	0,66	0,819160	
9,482000	0,66	0,822370	
9,493000	0,66	0,826910	
9,504000	0,66	0,828380	
9,515000	0,66	0,829470	
9,526000	0,66	0,830100	
9,537000	0,66	0,831630	
9,548000	0,66	0,831970	
9,559000	0,66	0,830420	
9,570000	0,66	0,824950	
9,581000	0,66	0,821660	
9,592000	0,66	0,825380	
9,603000	0,66	0,823110	
9,614000	0,66	0,820320	
9,625000	0,66	0,820150	
9,636000	0,66	0,819970	
9,647000	0,66	0,818920	
9,658000	0,66	0,819680	
9,669000	0,66	0,821070	
9,680000	0,66	0,821310	
9,691000	0,66	0,821570	
9,702000	0,66	0,823140	
9,713000	0,66	0,823640	
9,724000	0,66	0,824510	
9,735000	0,66	0,828220	
9,746000	0,66	0,831340	
9,757000	0,66	0,833060	
9,768000	0,66	0,834630	
9,779000	0,66	0,834130	
9,790000	0,66	0,832810	
9,801000	0,66	0,835290	
9,812000	0,66	0,839770	
9,823000	0,66	0,839430	
9,834000	0,66	0,842140	
9,845000	0,66	0,841560	
9,856000	0,66	0,842900	
9,867000	0,66	0,843810	
9,878000	0,66	0,850180	
9,889000	0,66	0,852720	
9,900000	0,66	0,856690	
9,911000	0,66	0,855820	
9,922000	0,66	0,855860	
9,933000	0,66	0,857380	
9,944000	0,66	0,857280	
9,955000	0,66	0,860010	
9,966000	0,66	0,861270	
9,977000	0,66	0,863000	
9,988000	0,66	0,864720	
9,999000	0,66	0,865980	
10,010000	0,66	0,868830	
10,021000	0,66	0,867690	
10,032000	0,66	0,865840	
10,043000	0,66	0,868160	
10,054000	0,66	0,870520	
10,065000	0,66	0,868330	
10,076000	0,66	0,868550	
10,087000	0,66	0,873520	
10,098000	0,66	0,877780	
10,109000	0,66	0,878130	
10,120000	0,66	0,877420	
10,131000	0,66	0,877670	
10,142000	0,66	0,878570	
10,153000	0,66	0,881700	
10,164000	0,66	0,883250	
10,175000	0,66	0,884050	
10,186000	0,66	0,886840	
10,197000	0,66	0,888150	
10,208000	0,66	0,888550	
10,219000	0,66	0,888190	
10,230000	0,66	0,890150	
10,241000	0,66	0,892940	
10,252000	0,66	0,895180	
10,263000	0,66	0,898750	
10,274000	0,66	0,901170	
10,285000	0,66	0,903290	
10,296000	0,66	0,905230	
10,307000	0,66	0,905710	
10,318000	0,66	0,906540	
10,329000	0,66	0,907460	
10,340000	0,66	0,909990	
10,351000	0,66	0,909140	
10,362000	0,66	0,907100	
10,373000	0,66	0,908770	
10,384000	0,66	0,910550	
10,395000	0,66	0,910160	
10,406000	0,66	0,908080	
10,417000	0,66	0,906660	
10,428000	0,66	0,906150	
10,439000	0,66	0,910650	
10,450000	0,66	0,916730	
10,461000	0,66	0,914970	
10,472000	0,66	0,914000	
10,483000	0,66	0,914110	
10,494000	0,66	0,919040	
10,505000	0,66	0,921470	
10,516000	0,66	0,922320	
10,527000	0,66	0,925410	
10,538000	0,66	0,927080	
10,549000	0,66	0,925270	
10,560000	0,66	0,924600	
10,571000	0,66	0,927740	
10,582000	0,66	0,928260	
10,593000	0,66	0,928060	
10,604000	0,66	0,928170	
10,615000	0,66	0,929590	
10,626000	0,66	0,932520	
10,637000	0,66	0,934120	
10,648000	0,66	0,935510	
10,659000	0,66	0,938060	
10,670000	0,66	0,939230	
10,681000	0,66	0,941880	
10,692000	0,66	0,945290	
10,703000	0,66	0,943990	
10,714000	0,66	0,943940	
10,725000	0,66	0,945110	
10,736000	0,66	0,945210	
10,747000	0,66	0,943100	
10,758000	0,66	0,942680	
10,769000	0,66	0,943380	
10,780000	0,66	0,942540	
10,791000	0,66	0,943410	
10,802000	0,66	0,948690	
10,813000	0,66	0,951980	
10,824000	0,66	0,952560	
10,835000	0,66	0,954410	
10,846000	0,66	0,956360	
10,857000	0,66	0,958250	
10,868000	0,66	0,959550	
10,879000	0,66	0,960710	
10,890000	0,66	0,960060	
10,901000	0,66	0,961980	
10,912000	0,66	0,965710	
10,923000	0,66	0,968010	
10,934000	0,66	0,967580	
10,945000	0,66	0,966670	
10,956000	0,66	0,967230	
10,967000	0,66	0,971830	
10,978000	0,66	0,975740	
10,989000	0,66	0,975990	
11,000000	0,66	0,976600	
11,011000	0,66	0,978260	
11,022000	0,66	0,978860	
11,033000	0,66	0,982100	
11,044000	0,66	0,986330	
11,055000	0,66	0,987480	
11,066000	0,66	0,991590	
11,077000	0,66	0,992070	
11,088000	0,66	0,991220	
11,099000	0,66	0,992520	
11,110000	0,66	0,994310	
11,121000	0,66	0,996850	
11,132000	0,66	0,997840	
11,143000	0,66	0,998820	
11,154000	0,66	1,001740	
11,165000	0,66	1,003850	
11,176000	0,66	1,004950	
11,187000	0,66	1,006350	
11,198000	0,66	1,009050	
11,209000	0,66	1,012390	
11,220000	0,66	1,015340	
11,231000	0,66	1,015250	
11,242000	0,66	1,014370	
11,253000	0,66	1,014900	
11,264000	0,66	1,017560	
11,275000	0,66	1,018100	
11,286000	0,66	1,018320	
11,297000	0,66	1,018780	
11,308000	0,66	1,018500	
11,319000	0,66	1,021640	
11,330000	0,66	1,023630	
11,341000	0,66	1,023090	
11,352000	0,66	1,021900	
11,363000	0,66	1,024020	
11,374000	0,66	1,029940	
11,385000	0,66	1,033870	
11,396000	0,66	1,034730	
11,407000	0,66	1,038680	
11,418000	0,66	1,042190	
11,429000	0,66	1,043050	
11,440000	0,66	1,044060	
11,451000	0,66	1,044290	
11,462000	0,66	1,044130	
11,473000	0,66	1,044360	
11,484000	0,66	1,044620	
11,495000	0,66	1,045360	
11,506000	0,66	1,043490	
11,517000	0,66	1,039410	
11,528000	0,66	1,038340	
11,539000	0,66	1,037400	
11,550000	0,66	1,034070	
11,561000	0,66	1,033910	
11,572000	0,66	1,035910	
11,583000	0,66	1,036360	
11,594000	0,66	1,037600	
11,605000	0,66	1,040700	
11,616000	0,66	1,043490	
11,627000	0,66	1,043240	
11,638000	0,66	1,041660	
11,649000	0,66	1,040020	
11,660000	0,66	1,040070	
11,671000	0,66	1,039510	
11,682000	0,66	1,040320	
11,693000	0,66	1,043310	
11,704000	0,66	1,045340	
11,715000	0,66	1,046220	
11,726000	0,66	1,048720	
11,737000	0,66	1,050230	
11,748000	0,66	1,051120	
11,759000	0,66	1,052190	
11,770000	0,66	1,054400	
11,781000	0,66	1,056890	
11,792000	0,66	1,057460	
11,803000	0,66	1,058030	
11,814000	0,66	1,060640	
11,825000	0,66	1,058990	
11,836000	0,66	1,061430	
11,847000	0,66	1,060510	
11,858000	0,66	1,059290	
11,869000	0,66	1,059320	
11,880000	0,66	1,062960	
11,891000	0,66	1,066120	
11,902000	0,66	1,070790	
11,913000	0,66	1,074680	
11,924000	0,66	1,078490	
11,935000	0,66	1,080170	
11,946000	0,66	1,081280	
11,957000	0,66	1,084140	
11,968000	0,66	1,084610	
11,979000	0,66	1,081910	
11,990000	0,66	1,085050	
12,001000	0,66	1,088720	
12,012000	0,66	1,089890	
12,023000	0,66	1,089820	
12,034000	0,66	1,091620	
12,045000	0,66	1,094510	
12,056000	0,66	1,094180	
12,067000	0,66	1,093630	
12,078000	0,66	1,095740	
12,089000	0,66	1,097710	
12,100000	0,66	1,099330	
12,111000	0,66	1,101590	
12,122000	0,66	1,104790	
12,133000	0,66	1,107820	
12,144000	0,66	1,109590	
12,155000	0,66	1,109610	
12,166000	0,66	1,110900	
12,177000	0,66	1,114150	
12,188000	0,66	1,118170	
12,199000	0,66	1,122070	
12,210000	0,66	1,123800	
12,221000	0,66	1,123540	
12,232000	0,66	1,124790	
12,243000	0,66	1,127730	
12,254000	0,66	1,127540	
12,265000	0,66	1,126460	
12,276000	0,66	1,128430	
12,287000	0,66	1,131420	
12,298000	0,66	1,135170	
12,309000	0,66	1,137990	
12,320000	0,66	1,139160	
12,331000	0,66	1,141570	
12,342000	0,66	1,143320	
12,353000	0,66	1,143070	
12,364000	0,66	1,143560	
12,375000	0,66	1,143930	
12,386000	0,66	1,142440	
12,397000	0,66	1,142220	
12,408000	0,66	1,143340	
12,419000	0,66	1,146640	
12,430000	0,66	1,151970	
12,441000	0,66	1,156280	
12,452000	0,66	1,157900	
12,463000	0,66	1,158270	
12,474000	0,66	1,160500	
12,485000	0,66	1,161250	
12,496000	0,66	1,162280	
12,507000	0,66	1,162980	
12,518000	0,66	1,164340	
12,529000	0,66	1,167860	
12,540000	0,66	1,168240	
12,551000	0,66	1,168520	
12,562000	0,66	1,169590	
12,573000	0,66	1,173460	
12,584000	0,66	1,174450	
12,595000	0,66	1,173500	
12,606000	0,66	1,176820	
12,617000	0,66	1,182210	
12,628000	0,66	1,184050	
12,639000	0,66	1,184840	
12,650000	0,66	1,188800	
12,661000	0,66	1,192240	
12,672000	0,66	1,196810	
12,683000	0,66	1,199670	
12,694000	0,66	1,202940	
12,705000	0,66	1,211270	
12,716000	0,66	1,213410	
12,727000	0,66	1,215130	
12,738000	0,66	1,219530	
12,749000	0,66	1,223040	
12,760000	0,66	1,228180	
12,771000	0,66	1,229980	
12,782000	0,66	1,237980	
12,793000	0,66	1,246390	
12,804000	0,66	1,252970	
12,815000	0,66	1,259470	
12,826000	0,66	1,262520	
12,837000	0,66	1,263930	
12,848000	0,66	1,264900	
12,859000	0,66	1,265360	
12,870000	0,66	1,267240	
12,881000	0,66	1,269200	
12,892000	0,66	1,268150	
12,903000	0,66	1,264180	
12,914000	0,66	1,263100	
12,925000	0,66	1,265220	
12,936000	0,66	1,265620	
12,947000	0,66	1,269370	
12,958000	0,66	1,274550	
12,969000	0,66	1,275230	
12,980000	0,66	1,278980	
12,991000	0,66	1,283480	
13,002000	0,66	1,286890	
13,013000	0,66	1,292980	
13,024000	0,66	1,297870	
13,035000	0,66	1,301250	
13,046000	0,66	1,302450	
13,057000	0,66	1,301810	
13,068000	0,66	1,302740	
13,079000	0,66	1,307400	
13,090000	0,66	1,311980	
13,101000	0,66	1,316100	
13,112000	0,66	1,321440	
13,123000	0,66	1,327200	
13,134000	0,66	1,332530	
13,145000	0,66	1,340930	
13,156000	0,66	1,347000	
13,167000	0,66	1,352130	
13,178000	0,66	1,357180	
13,189000	0,66	1,362430	
13,200000	0,66	1,365470	
13,211000	0,66	1,370150	
13,222000	0,66	1,376120	
13,233000	0,66	1,379290	
13,244000	0,66	1,385680	
13,255000	0,66	1,392010	
13,266000	0,66	1,399690	
13,277000	0,66	1,400040	
13,288000	0,66	1,403560	
13,299000	0,66	1,407770	
13,310000	0,66	1,412070	
13,321000	0,66	1,416240	
13,332000	0,66	1,419520	
13,343000	0,66	1,424240	
13,354000	0,66	1,427500	
13,365000	0,66	1,430770	
13,376000	0,66	1,432640	
13,387000	0,66	1,436620	
13,398000	0,66	1,441190	
13,409000	0,66	1,448870	
13,420000	0,66	1,454770	
13,431000	0,66	1,459150	
13,442000	0,66	1,462930	
13,453000	0,66	1,469780	
13,464000	0,66	1,474970	
13,475000	0,66	1,479930	
13,486000	0,66	1,484300	
13,497000	0,66	1,489370	
13,508000	0,66	1,495370	
13,519000	0,66	1,499600	
13,530000	0,66	1,503490	
13,541000	0,66	1,506450	
13,552000	0,66	1,509460	
13,563000	0,66	1,513610	
13,574000	0,66	1,518730	
13,585000	0,66	1,524200	
13,596000	0,66	1,528910	
13,607000	0,66	1,533860	
13,618000	0,66	1,539160	
13,629000	0,66	1,542140	
13,640000	0,66	1,544230	
13,651000	0,66	1,549470	
13,662000	0,66	1,554640	
13,673000	0,66	1,557010	
13,684000	0,66	1,559180	
13,695000	0,66	1,563060	
13,706000	0,66	1,564540	
13,717000	0,66	1,569160	
13,728000	0,66	1,577070	
13,739000	0,66	1,579760	
13,750000	0,66	1,581820	
13,761000	0,66	1,586310	
13,772000	0,66	1,590350	
13,783000	0,66	1,593910	
13,794000	0,66	1,597310	
13,805000	0,66	1,596730	
13,816000	0,66	1,598750	
13,827000	0,66	1,599730	
13,838000	0,66	1,600170	
13,849000	0,66	1,601210	
13,860000	0,66	1,604500	
13,871000	0,66	1,608580	
13,882000	0,66	1,612840	
13,893000	0,66	1,612040	
13,904000	0,66	1,616710	
13,915000	0,66	1,619500	
13,926000	0,66	1,623180	
13,937000	0,66	1,623990	
13,948000	0,66	1,620330	
13,959000	0,66	1,621590	
13,970000	0,66	1,624180	
13,981000	0,66	1,626470	
13,992000	0,66	1,633050	
14,003000	0,66	1,635040	
14,014000	0,66	1,638710	
14,025000	0,66	1,643890	
14,036000	0,66	1,646250	
14,047000	0,66	1,648650	
14,058000	0,66	1,653350	
14,069000	0,66	1,659930	
14,080000	0,66	1,662830	
14,091000	0,66	1,666060	
14,102000	0,66	1,668230	
14,113000	0,66	1,675880	
14,124000	0,66	1,684040	
14,135000	0,66	1,696710	
14,146000	0,66	1,718860	
14,157000	0,66	1,756000	
14,168000	0,66	1,805830	
14,179000	0,66	1,867150	
14,190000	0,66	1,940240	
14,201000	0,66	2,023970	
14,212000	0,66	2,113360	
14,223000	0,66	2,198320	
14,234000	0,66	2,275770	
14,245000	0,66	2,336300	
14,256000	0,66	2,375630	
14,267000	0,66	2,400960	
14,278000	0,66	2,412060	
14,289000	0,66	2,415080	
14,300000	0,66	2,414540	
14,311000	0,66	2,408000	
14,322000	0,66	2,396110	
14,333000	0,66	2,373600	
14,344000	0,66	2,339430	
14,355000	0,66	2,301850	
14,366000	0,66	2,262190	
14,377000	0,66	2,216420	
14,388000	0,66	2,170840	
14,399000	0,66	2,126890	
14,410000	0,66	2,083110	
14,421000	0,66	2,037950	
14,432000	0,66	1,995200	
14,443000	0,66	1,957560	
14,454000	0,66	1,920900	
14,465000	0,66	1,883670	
14,476000	0,66	1,850540	
14,487000	0,66	1,820730	
14,498000	0,66	1,795380	
14,509000	0,66	1,775170	
14,520000	0,66	1,759400	
14,531000	0,66	1,747950	
14,542000	0,66	1,748640	
14,553000	0,66	1,757320	
14,564000	0,66	1,769380	
14,575000	0,66	1,790530	
14,586000	0,66	1,815410	
14,597000	0,66	1,840720	
14,608000	0,66	1,858590	
14,619000	0,66	1,867540	
14,630000	0,66	1,866010	
14,641000	0,66	1,850880	
14,652000	0,66	1,826480	
14,663000	0,66	1,799960	
14,674000	0,66	1,768940	
14,685000	0,66	1,739510	
14,696000	0,66	1,717340	
14,707000	0,66	1,698230	
14,718000	0,66	1,685380	
14,729000	0,66	1,671990	
14,740000	0,66	1,662120	
14,751000	0,66	1,656460	
14,762000	0,66	1,650970	
14,773000	0,66	1,643700	
14,784000	0,66	1,641800	
14,795000	0,66	1,641310	
14,806000	0,66	1,638810	
14,817000	0,66	1,633140	
14,828000	0,66	1,629580	
14,839000	0,66	1,623650	
14,850000	0,66	1,620360	
14,861000	0,66	1,617310	
14,872000	0,66	1,617620	
14,883000	0,66	1,617610	
14,894000	0,66	1,617950	
14,905000	0,66	1,618900	
14,916000	0,66	1,618480	
14,927000	0,66	1,619840	
14,938000	0,66	1,623970	
14,949000	0,66	1,627450	
14,960000	0,66	1,630280	
14,971000	0,66	1,634370	
14,982000	0,66	1,638650	
14,993000	0,66	1,640100	
15,004000	0,66	1,641960	
15,015000	0,66	1,645230	
15,026000	0,66	1,644880	
15,037000	0,66	1,643820	
15,048000	0,66	1,643450	
15,059000	0,66	1,641610	
15,070000	0,66	1,639630	
15,081000	0,66	1,638710	
15,092000	0,66	1,635250	
15,103000	0,66	1,630550	
15,114000	0,66	1,626390	
15,125000	0,66	1,621420	
15,136000	0,66	1,618250	
15,147000	0,66	1,617870	
15,158000	0,66	1,619790	
15,169000	0,66	1,619060	
15,180000	0,66	1,621130	
15,191000	0,66	1,626360	
15,202000	0,66	1,629100	
15,213000	0,66	1,628780	
15,224000	0,66	1,627160	
15,235000	0,66	1,627970	
15,246000	0,66	1,626120	
15,257000	0,66	1,623990	
15,268000	0,66	1,626190	
15,279000	0,66	1,624840	
15,290000	0,66	1,624510	
15,301000	0,66	1,626700	
15,312000	0,66	1,630300	
15,323000	0,66	1,634390	
15,334000	0,66	1,636560	
15,345000	0,66	1,643680	
15,356000	0,66	1,654320	
15,367000	0,66	1,666740	
15,378000	0,66	1,680760	
15,389000	0,66	1,694650	
15,400000	0,66	1,704610	
15,411000	0,66	1,706980	
15,422000	0,66	1,707790	
15,433000	0,66	1,705860	
15,444000	0,66	1,697750	
15,455000	0,66	1,692750	
15,466000	0,66	1,689070	
15,477000	0,66	1,684420	
15,488000	0,66	1,683800	
15,499000	0,66	1,684820	
15,510000	0,66	1,684950	
15,521000	0,66	1,683020	
15,532000	0,66	1,680840	
15,543000	0,66	1,680380	
15,554000	0,66	1,680500	
15,565000	0,66	1,682420	
15,576000	0,66	1,685900	
15,587000	0,66	1,686720	
15,598000	0,66	1,688810	
15,609000	0,66	1,690750	
15,620000	0,66	1,689610	
15,631000	0,66	1,691910	
15,642000	0,66	1,694790	
15,653000	0,66	1,697280	
15,664000	0,66	1,699940	
15,675000	0,66	1,704600	
15,686000	0,66	1,711310	
15,697000	0,66	1,719650	
15,708000	0,66	1,731830	
15,719000	0,66	1,745030	
15,730000	0,66	1,764750	
15,741000	0,66	1,798260	
15,752000	0,66	1,843700	
15,763000	0,66	1,904820	
15,774000	0,66	1,980270	
15,785000	0,66	2,063300	
15,796000	0,66	2,145710	
15,807000	0,66	2,216680	
15,818000	0,66	2,268090	
15,829000	0,66	2,290400	
15,840000	0,66	2,282460	
15,851000	0,66	2,253350	
15,862000	0,66	2,214770	
15,873000	0,66	2,173810	
15,884000	0,66	2,136160	
15,895000	0,66	2,102290	
15,906000	0,66	2,072890	
15,917000	0,66	2,048830	
15,928000	0,66	2,030390	
15,939000	0,66	2,017770	
15,950000	0,66	2,009560	
15,961000	0,66	2,007780	
15,972000	0,66	2,007940	
15,983000	0,66	2,012750	
15,994000	0,66	2,019840	
16,005000	0,66	2,032920	
16,016000	0,66	2,049490	
16,027000	0,66	2,064790	
16,038000	0,66	2,079410	
16,049000	0,66	2,095110	
16,060000	0,66	2,108510	
16,071000	0,66	2,119390	
16,082000	0,66	2,130170	
16,093000	0,66	2,146160	
16,104000	0,66	2,155930	
16,115000	0,66	2,162220	
16,126000	0,66	2,166350	
16,137000	0,66	2,172440	
16,148000	0,66	2,177570	
16,159000	0,66	2,180160	
16,170000	0,66	2,185110	
16,181000	0,66	2,190000	
16,192000	0,66	2,191570	
16,203000	0,66	2,191230	
16,214000	0,66	2,193840	
16,225000	0,66	2,198430	
16,236000	0,66	2,203150	
16,247000	0,66	2,208270	
16,258000	0,66	2,212670	
16,269000	0,66	2,218790	
16,280000	0,66	2,226960	
16,291000	0,66	2,234070	
16,302000	0,66	2,240590	
16,313000	0,66	2,248550	
16,324000	0,66	2,256560	
16,335000	0,66	2,262570	
16,346000	0,66	2,264210	
16,357000	0,66	2,264880	
16,368000	0,66	2,266430	
16,379000	0,66	2,267230	
16,390000	0,66	2,265270	
16,401000	0,66	2,264230	
16,412000	0,66	2,267340	
16,423000	0,66	2,270700	
16,434000	0,66	2,273900	
16,445000	0,66	2,274990	
16,456000	0,66	2,277870	
16,467000	0,66	2,283350	
16,478000	0,66	2,287990	
16,489000	0,66	2,291790	
16,500000	0,66	2,295290	
16,511000	0,66	2,298220	
16,522000	0,66	2,302290	
16,533000	0,66	2,312810	
16,544000	0,66	2,320920	
16,555000	0,66	2,329830	
16,566000	0,66	2,338170	
16,577000	0,66	2,348330	
16,588000	0,66	2,357410	
16,599000	0,66	2,366880	
16,610000	0,66	2,375870	
16,621000	0,66	2,385250	
16,632000	0,66	2,392240	
16,643000	0,66	2,398340	
16,654000	0,66	2,403440	
16,665000	0,66	2,406640	
16,676000	0,66	2,409420	
16,687000	0,66	2,407340	
16,698000	0,66	2,401920	
16,709000	0,66	2,397740	
16,720000	0,66	2,393900	
16,731000	0,66	2,384900	
16,742000	0,66	2,376070	
16,753000	0,66	2,369220	
16,764000	0,66	2,361250	
16,775000	0,66	2,353430	
16,786000	0,66	2,347170	
16,797000	0,66	2,341810	
16,808000	0,66	2,337720	
16,819000	0,66	2,337090	
16,830000	0,66	2,339210	
16,841000	0,66	2,340960	
16,852000	0,66	2,338740	
16,863000	0,66	2,339020	
16,874000	0,66	2,341540	
16,885000	0,66	2,343320	
16,896000	0,66	2,342790	
16,907000	0,66	2,347520	
16,918000	0,66	2,351690	
16,929000	0,66	2,356630	
16,940000	0,66	2,361980	
16,951000	0,66	2,370430	
16,962000	0,66	2,374330	
16,973000	0,66	2,375120	
16,984000	0,66	2,377640	
16,995000	0,66	2,382320	
17,006000	0,66	2,385910	
17,017000	0,66	2,390030	
17,028000	0,66	2,396810	
17,039000	0,66	2,403430	
17,050000	0,66	2,408620	
17,061000	0,66	2,413140	
17,072000	0,66	2,421150	
17,083000	0,66	2,429990	
17,094000	0,66	2,438320	
17,105000	0,66	2,450720	
17,116000	0,66	2,462340	
17,127000	0,66	2,471790	
17,138000	0,66	2,483030	
17,149000	0,66	2,494870	
17,160000	0,66	2,507460	
17,171000	0,66	2,520570	
17,182000	0,66	2,532500	
17,193000	0,66	2,544120	
17,204000	0,66	2,554310	
17,215000	0,66	2,565400	
17,226000	0,66	2,578190	
17,237000	0,66	2,591910	
17,248000	0,66	2,605010	
17,259000	0,66	2,618580	
17,270000	0,66	2,634250	
17,281000	0,66	2,647610	
17,292000	0,66	2,662020	
17,303000	0,66	2,676840	
17,314000	0,66	2,695240	
17,325000	0,66	2,713550	
17,336000	0,66	2,728140	
17,347000	0,66	2,741430	
17,358000	0,66	2,754190	
17,369000	0,66	2,760020	
17,380000	0,66	2,771490	
17,391000	0,66	2,785010	
17,402000	0,66	2,797350	
17,413000	0,66	2,808900	
17,424000	0,66	2,823390	
17,435000	0,66	2,834750	
17,446000	0,66	2,847020	
17,457000	0,66	2,854950	
17,468000	0,66	2,864340	
17,479000	0,66	2,874150	
17,490000	0,66	2,887050	
17,501000	0,66	2,897760	
17,512000	0,66	2,908640	
17,523000	0,66	2,918820	
17,534000	0,66	2,929800	
17,545000	0,66	2,935600	
17,556000	0,66	2,943850	
17,567000	0,66	2,954720	
17,578000	0,66	2,965310	
17,589000	0,66	2,974260	
17,600000	0,66	2,981790	
17,611000	0,66	2,985580	
17,622000	0,66	2,990660	
17,633000	0,66	2,997620	
17,644000	0,66	3,003120	
17,655000	0,66	3,006720	
17,666000	0,66	3,013090	
17,677000	0,66	3,019910	
17,688000	0,66	3,023940	
17,699000	0,66	3,026570	
17,710000	0,66	3,028850	
17,721000	0,66	3,032550	
17,732000	0,66	3,038590	
17,743000	0,66	3,042990	
17,754000	0,66	3,046040	
17,765000	0,66	3,049840	
17,776000	0,66	3,051810	
17,787000	0,66	3,054950	
17,798000	0,66	3,061840	
17,809000	0,66	3,070840	
17,820000	0,66	3,080950	
17,831000	0,66	3,090870	
17,842000	0,66	3,104410	
17,853000	0,66	3,120190	
17,864000	0,66	3,134780	
17,875000	0,66	3,147900	
17,886000	0,66	3,160090	
17,897000	0,66	3,169610	
17,908000	0,66	3,174600	
17,919000	0,66	3,177720	
17,930000	0,66	3,178970	
17,941000	0,66	3,180590	
17,952000	0,66	3,180820	
17,963000	0,66	3,177050	
17,974000	0,66	3,173540	
17,985000	0,66	3,172820	
17,996000	0,66	3,170670	
18,007000	0,66	3,169120	
18,018000	0,66	3,172650	
18,029000	0,66	3,172640	
18,040000	0,66	3,175100	
18,051000	0,66	3,181340	
18,062000	0,66	3,185320	
18,073000	0,66	3,190380	
18,084000	0,66	3,196800	
18,095000	0,66	3,201490	
18,106000	0,66	3,204930	
18,117000	0,66	3,207370	
18,128000	0,66	3,210550	
18,139000	0,66	3,212380	
18,150000	0,66	3,212930	
18,161000	0,66	3,210770	
18,172000	0,66	3,211940	
18,183000	0,66	3,212510	
18,194000	0,66	3,213500	
18,205000	0,66	3,215120	
18,216000	0,66	3,216580	
18,227000	0,66	3,219750	
18,238000	0,66	3,221680	
18,249000	0,66	3,225340	
18,260000	0,66	3,230560	
18,271000	0,66	3,233390	
18,282000	0,66	3,235540	
18,293000	0,66	3,234140	
18,304000	0,66	3,230600	
18,315000	0,66	3,224570	
18,326000	0,66	3,218920	
18,337000	0,66	3,213400	
18,348000	0,66	3,206780	
18,359000	0,66	3,197240	
18,370000	0,66	3,184130	
18,381000	0,66	3,170200	
18,392000	0,66	3,157620	
18,403000	0,66	3,141540	
18,414000	0,66	3,125990	
18,425000	0,66	3,111930	
18,436000	0,66	3,096410	
18,447000	0,66	3,082120	
18,458000	0,66	3,066900	
18,469000	0,66	3,051320	
18,480000	0,66	3,036530	
18,491000	0,66	3,020170	
18,502000	0,66	3,005070	
18,513000	0,66	2,992610	
18,524000	0,66	2,980980	
18,535000	0,66	2,970360	
18,546000	0,66	2,958470	
18,557000	0,66	2,942770	
18,568000	0,66	2,927730	
18,579000	0,66	2,915380	
18,590000	0,66	2,903690	
18,601000	0,66	2,893260	
18,612000	0,66	2,880050	
18,623000	0,66	2,866420	
18,634000	0,66	2,852180	
18,645000	0,66	2,838440	
18,656000	0,66	2,827000	
18,667000	0,66	2,813340	
18,678000	0,66	2,803370	
18,689000	0,66	2,788940	
18,700000	0,66	2,775620	
18,711000	0,66	2,765470	
18,722000	0,66	2,760840	
18,733000	0,66	2,756490	
18,744000	0,66	2,752430	
18,755000	0,66	2,750310	
18,766000	0,66	2,751080	
18,777000	0,66	2,759180	
18,788000	0,66	2,768690	
18,799000	0,66	2,779100	
18,810000	0,66	2,793630	
18,821000	0,66	2,808170	
18,832000	0,66	2,822160	
18,843000	0,66	2,832070	
18,854000	0,66	2,831790	
18,865000	0,66	2,821790	
18,876000	0,66	2,800140	
18,887000	0,66	2,774900	
18,898000	0,66	2,747090	
18,909000	0,66	2,715450	
18,920000	0,66	2,685150	
18,931000	0,66	2,654790	
18,942000	0,66	2,626120	
18,953000	0,66	2,600840	
18,964000	0,66	2,580400	
18,975000	0,66	2,560900	
18,986000	0,66	2,539860	
18,997000	0,66	2,523630	
19,008000	0,66	2,508980	
19,019000	0,66	2,494960	
19,030000	0,66	2,480200	
19,041000	0,66	2,466550	
19,052000	0,66	2,454750	
19,063000	0,66	2,442920	
19,074000	0,66	2,430280	
19,085000	0,66	2,416130	
19,096000	0,66	2,402780	
19,107000	0,66	2,391290	
19,118000	0,66	2,381320	
19,129000	0,66	2,371270	
19,140000	0,66	2,360080	
19,151000	0,66	2,347750	
19,162000	0,66	2,332920	
19,173000	0,66	2,318470	
19,184000	0,66	2,306330	
19,195000	0,66	2,293760	
19,206000	0,66	2,279880	
19,217000	0,66	2,266350	
19,228000	0,66	2,254190	
19,239000	0,66	2,242940	
19,250000	0,66	2,233330	
19,261000	0,66	2,221690	
19,272000	0,66	2,211060	
19,283000	0,66	2,199190	
19,294000	0,66	2,184580	
19,305000	0,66	2,173300	
19,316000	0,66	2,161480	
19,327000	0,66	2,148370	
19,338000	0,66	2,136190	
19,349000	0,66	2,122650	
19,360000	0,66	2,108570	
19,371000	0,66	2,096090	
19,382000	0,66	2,086670	
19,393000	0,66	2,076920	
19,404000	0,66	2,066540	
19,415000	0,66	2,058890	
19,426000	0,66	2,046780	
19,437000	0,66	2,035350	
19,448000	0,66	2,026740	
19,459000	0,66	2,016560	
19,470000	0,66	2,009210	
19,481000	0,66	2,002670	
19,492000	0,66	1,993800	
19,503000	0,66	1,986270	
19,514000	0,66	1,975810	
19,525000	0,66	1,967480	
19,536000	0,66	1,957950	
19,547000	0,66	1,951230	
19,558000	0,66	1,947410	
19,569000	0,66	1,941760	
19,580000	0,66	1,938640	
19,591000	0,66	1,936500	
19,602000	0,66	1,934410	
19,613000	0,66	1,931380	
19,624000	0,66	1,930740	
19,635000	0,66	1,928040	
19,646000	0,66	1,922640	
19,657000	0,66	1,919650	
19,668000	0,66	1,911460	
19,679000	0,66	1,902390	
19,690000	0,66	1,895250	
19,701000	0,66	1,888120	
19,712000	0,66	1,877960	
19,723000	0,66	1,865850	
19,734000	0,66	1,853200	
19,745000	0,66	1,842990	
19,756000	0,66	1,833400	
19,767000	0,66	1,824130	
19,778000	0,66	1,818940	
19,789000	0,66	1,812570	
19,800000	0,66	1,805950	
19,811000	0,66	1,799340	
19,822000	0,66	1,793830	
19,833000	0,66	1,790240	
19,844000	0,66	1,787360	
19,855000	0,66	1,784750	
19,866000	0,66	1,782030	
19,877000	0,66	1,776950	
19,888000	0,66	1,769180	
19,899000	0,66	1,766260	
19,910000	0,66	1,767000	
19,921000	0,66	1,766810	
19,932000	0,66	1,763850	
19,943000	0,66	1,760470	
19,954000	0,66	1,757180	
19,965000	0,66	1,756770	
19,976000	0,66	1,760780	
19,987000	0,66	1,764130	
19,998000	0,66	1,769200	
20,009000	0,66	1,777120	
20,020000	0,66	1,783940	
20,031000	0,66	1,789980	
20,042000	0,66	1,795090	
20,053000	0,66	1,795820	
20,064000	0,66	1,799880	
20,075000	0,66	1,800760	
20,086000	0,66	1,799980	
20,097000	0,66	1,797590	
20,108000	0,66	1,790730	
20,119000	0,66	1,783960	
20,130000	0,66	1,776660	
20,141000	0,66	1,772310	
20,152000	0,66	1,770720	
20,163000	0,66	1,767010	
20,174000	0,66	1,762490	
20,185000	0,66	1,762090	
20,196000	0,66	1,762620	
20,207000	0,66	1,768130	
20,218000	0,66	1,778070	
20,229000	0,66	1,793790	
20,240000	0,66	1,807350	
20,251000	0,66	1,826590	
20,262000	0,66	1,850010	
20,273000	0,66	1,868520	
20,284000	0,66	1,885300	
20,295000	0,66	1,902490	
20,306000	0,66	1,911790	
20,317000	0,66	1,913230	
20,328000	0,66	1,910600	
20,339000	0,66	1,900660	
20,350000	0,66	1,886130	
20,361000	0,66	1,868620	
20,372000	0,66	1,851150	
20,383000	0,66	1,835280	
20,394000	0,66	1,822110	
20,405000	0,66	1,810480	
20,416000	0,66	1,801180	
20,427000	0,66	1,791930	
20,438000	0,66	1,782550	
20,449000	0,66	1,773060	
20,460000	0,66	1,767850	
20,471000	0,66	1,761290	
20,482000	0,66	1,754590	
20,493000	0,66	1,749110	
20,504000	0,66	1,742650	
20,515000	0,66	1,739760	
20,526000	0,66	1,737820	
20,537000	0,66	1,732400	
20,548000	0,66	1,728680	
20,559000	0,66	1,729430	
20,570000	0,66	1,732620	
20,581000	0,66	1,738600	
20,592000	0,66	1,746170	
20,603000	0,66	1,753610	
20,614000	0,66	1,762730	
20,625000	0,66	1,773450	
20,636000	0,66	1,783420	
20,647000	0,66	1,789310	
20,658000	0,66	1,794250	
20,669000	0,66	1,800240	
20,680000	0,66	1,804010	
20,691000	0,66	1,800390	
20,702000	0,66	1,792480	
20,713000	0,66	1,786150	
20,724000	0,66	1,782200	
20,735000	0,66	1,774060	
20,746000	0,66	1,763670	
20,757000	0,66	1,753460	
20,768000	0,66	1,749240	
20,779000	0,66	1,742110	
20,790000	0,66	1,737200	
20,801000	0,66	1,733040	
20,812000	0,66	1,726550	
20,823000	0,66	1,717080	
20,834000	0,66	1,712180	
20,845000	0,66	1,709250	
20,856000	0,66	1,703940	
20,867000	0,66	1,697690	
20,878000	0,66	1,691340	
20,889000	0,66	1,685340	
20,900000	0,66	1,682440	
20,911000	0,66	1,681770	
20,922000	0,66	1,681770	
20,933000	0,66	1,684100	
20,944000	0,66	1,685230	
20,955000	0,66	1,684410	
20,966000	0,66	1,683700	
20,977000	0,66	1,684350	
20,988000	0,66	1,685420	
20,999000	0,66	1,683490	
21,010000	0,66	1,683810	
21,021000	0,66	1,687580	
21,032000	0,66	1,688270	
21,043000	0,66	1,688350	
21,054000	0,66	1,688710	
21,065000	0,66	1,690460	
21,076000	0,66	1,688960	
21,087000	0,66	1,690010	
21,098000	0,66	1,694350	
21,109000	0,66	1,703440	
21,120000	0,66	1,716580	
21,131000	0,66	1,731950	
21,142000	0,66	1,750840	
21,153000	0,66	1,777520	
21,164000	0,66	1,811440	
21,175000	0,66	1,849950	
21,186000	0,66	1,891750	
21,197000	0,66	1,937340	
21,208000	0,66	1,979610	
21,219000	0,66	2,015690	
21,230000	0,66	2,041070	
21,241000	0,66	2,055370	
21,252000	0,66	2,061010	
21,263000	0,66	2,055320	
21,274000	0,66	2,043530	
21,285000	0,66	2,025440	
21,296000	0,66	2,001810	
21,307000	0,66	1,976790	
21,318000	0,66	1,949900	
21,329000	0,66	1,925740	
21,340000	0,66	1,903630	
21,351000	0,66	1,884280	
21,362000	0,66	1,867500	
21,373000	0,66	1,853740	
21,384000	0,66	1,840740	
21,395000	0,66	1,826830	
21,406000	0,66	1,811810	
21,417000	0,66	1,800360	
21,428000	0,66	1,788300	
21,439000	0,66	1,777630	
21,450000	0,66	1,769180	
21,461000	0,66	1,763310	
21,472000	0,66	1,758450	
21,483000	0,66	1,751550	
21,494000	0,66	1,751100	
21,505000	0,66	1,746960	
21,516000	0,66	1,742870	
21,527000	0,66	1,738190	
21,538000	0,66	1,738510	
21,549000	0,66	1,738310	
21,560000	0,66	1,736600	
21,571000	0,66	1,733670	
21,582000	0,66	1,732580	
21,593000	0,66	1,733850	
21,604000	0,66	1,742500	
21,615000	0,66	1,749230	
21,626000	0,66	1,760350	
21,637000	0,66	1,768830	
21,648000	0,66	1,774780	
21,659000	0,66	1,779570	
21,670000	0,66	1,783330	
21,681000	0,66	1,784650	
21,692000	0,66	1,784320	
21,703000	0,66	1,783870	
21,714000	0,66	1,783830	
21,725000	0,66	1,785330	
21,736000	0,66	1,787760	
21,747000	0,66	1,789520	
21,758000	0,66	1,790280	
21,769000	0,66	1,791180	
21,780000	0,66	1,791260	
21,791000	0,66	1,791990	
21,802000	0,66	1,791320	
21,813000	0,66	1,789060	
21,824000	0,66	1,785020	
21,835000	0,66	1,782710	
21,846000	0,66	1,783220	
21,857000	0,66	1,784260	
21,868000	0,66	1,784340	
21,879000	0,66	1,782810	
21,890000	0,66	1,781970	
21,901000	0,66	1,783710	
21,912000	0,66	1,785790	
21,923000	0,66	1,786740	
21,934000	0,66	1,785890	
21,945000	0,66	1,785400	
21,956000	0,66	1,786800	
21,967000	0,66	1,789250	
21,978000	0,66	1,791430	
21,989000	0,66	1,792060	
22,000000	0,66	1,789940	
22,011000	0,66	1,789400	
22,022000	0,66	1,792890	
22,033000	0,66	1,792140	
22,044000	0,66	1,794480	
22,055000	0,66	1,798790	
22,066000	0,66	1,803910	
22,077000	0,66	1,807540	
22,088000	0,66	1,811460	
22,099000	0,66	1,818630	
22,110000	0,66	1,825650	
22,121000	0,66	1,831560	
22,132000	0,66	1,834720	
22,143000	0,66	1,834670	
22,154000	0,66	1,828670	
22,165000	0,66	1,823770	
22,176000	0,66	1,816190	
22,187000	0,66	1,808040	
22,198000	0,66	1,800870	
22,209000	0,66	1,789650	
22,220000	0,66	1,779670	
22,231000	0,66	1,770500	
22,242000	0,66	1,761010	
22,253000	0,66	1,755710	
22,264000	0,66	1,751930	
22,275000	0,66	1,746080	
22,286000	0,66	1,743670	
22,297000	0,66	1,739800	
22,308000	0,66	1,741240	
22,319000	0,66	1,740770	
22,330000	0,66	1,740730	
22,341000	0,66	1,739730	
22,352000	0,66	1,736770	
22,363000	0,66	1,733650	
22,374000	0,66	1,733540	
22,385000	0,66	1,731880	
22,396000	0,66	1,730170	
22,407000	0,66	1,726870	
22,418000	0,66	1,727160	
22,429000	0,66	1,723860	
22,440000	0,66	1,720050	
22,451000	0,66	1,719460	
22,462000	0,66	1,719430	
22,473000	0,66	1,718910	
22,484000	0,66	1,718800	
22,495000	0,66	1,718290	
22,506000	0,66	1,718820	
22,517000	0,66	1,720150	
22,528000	0,66	1,720770	
22,539000	0,66	1,721030	
22,550000	0,66	1,722540	
22,561000	0,66	1,723190	
22,572000	0,66	1,723540	
22,583000	0,66	1,723510	
22,594000	0,66	1,721200	
22,605000	0,66	1,718910	
22,616000	0,66	1,716830	
22,627000	0,66	1,715200	
22,638000	0,66	1,715150	
22,649000	0,66	1,715340	
22,660000	0,66	1,714550	
22,671000	0,66	1,714360	
22,682000	0,66	1,715740	
22,693000	0,66	1,717180	
22,704000	0,66	1,719580	
22,715000	0,66	1,723170	
22,726000	0,66	1,730560	
22,737000	0,66	1,741280	
22,748000	0,66	1,756050	
22,759000	0,66	1,775720	
22,770000	0,66	1,800260	
22,781000	0,66	1,831340	
22,792000	0,66	1,868880	
22,803000	0,66	1,911050	
22,814000	0,66	1,957810	
22,825000	0,66	2,012480	
22,836000	0,66	2,069380	
22,847000	0,66	2,125320	
22,858000	0,66	2,176790	
22,869000	0,66	2,223720	
22,880000	0,66	2,262730	
22,891000	0,66	2,285680	
22,902000	0,66	2,289570	
22,913000	0,66	2,279430	
22,924000	0,66	2,258310	
22,935000	0,66	2,228920	
22,946000	0,66	2,194210	
22,957000	0,66	2,157600	
22,968000	0,66	2,121490	
22,979000	0,66	2,086030	
22,990000	0,66	2,055230	
23,001000	0,66	2,027970	
23,012000	0,66	2,005310	
23,023000	0,66	1,982990	
23,034000	0,66	1,960970	
23,045000	0,66	1,938930	
23,056000	0,66	1,918710	
23,067000	0,66	1,899770	
23,078000	0,66	1,885350	
23,089000	0,66	1,870920	
23,100000	0,66	1,857530	
23,111000	0,66	1,844710	
23,122000	0,66	1,833880	
23,133000	0,66	1,821820	
23,144000	0,66	1,817650	
23,155000	0,66	1,813060	
23,166000	0,66	1,807900	
23,177000	0,66	1,807170	
23,188000	0,66	1,806730	
23,199000	0,66	1,809170	
23,210000	0,66	1,810830	
23,221000	0,66	1,807820	
23,232000	0,66	1,805140	
23,243000	0,66	1,802840	
23,254000	0,66	1,801860	
23,265000	0,66	1,800650	
23,276000	0,66	1,798400	
23,287000	0,66	1,794490	
23,298000	0,66	1,788790	
23,309000	0,66	1,783110	
23,320000	0,66	1,779670	
23,331000	0,66	1,774700	
23,342000	0,66	1,767720	
23,353000	0,66	1,764240	
23,364000	0,66	1,763130	
23,375000	0,66	1,760800	
23,386000	0,66	1,758790	
23,397000	0,66	1,758170	
23,408000	0,66	1,756270	
23,419000	0,66	1,755420	
23,430000	0,66	1,757910	
23,441000	0,66	1,759700	
23,452000	0,66	1,760900	
23,463000	0,66	1,765500	
23,474000	0,66	1,767590	
23,485000	0,66	1,769710	
23,496000	0,66	1,773690	
23,507000	0,66	1,777270	
23,518000	0,66	1,781640	
23,529000	0,66	1,786260	
23,540000	0,66	1,790630	
23,551000	0,66	1,792560	
23,562000	0,66	1,796770	
23,573000	0,66	1,800310	
23,584000	0,66	1,804190	
23,595000	0,66	1,810380	
23,606000	0,66	1,814580	
23,617000	0,66	1,822920	
23,628000	0,66	1,828440	
23,639000	0,66	1,832660	
23,650000	0,66	1,837970	
23,661000	0,66	1,843070	
23,672000	0,66	1,848720	
23,683000	0,66	1,855160	
23,694000	0,66	1,864660	
23,705000	0,66	1,878190	
23,716000	0,66	1,893040	
23,727000	0,66	1,915350	
23,738000	0,66	1,945090	
23,749000	0,66	1,980800	
23,760000	0,66	2,020440	
23,771000	0,66	2,070440	
23,782000	0,66	2,126090	
23,793000	0,66	2,187480	
23,804000	0,66	2,252830	
23,815000	0,66	2,323390	
23,826000	0,66	2,393150	
23,837000	0,66	2,466670	
23,848000	0,66	2,543500	
23,859000	0,66	2,619540	
23,870000	0,66	2,695210	
23,881000	0,66	2,771860	
23,892000	0,66	2,849070	
23,903000	0,66	2,931030	
23,914000	0,66	3,018500	
23,925000	0,66	3,115680	
23,936000	0,66	3,233920	
23,947000	0,66	3,375170	
23,958000	0,66	3,540400	
23,969000	0,66	3,723990	
23,980000	0,66	3,913970	
23,991000	0,66	4,098550	
24,002000	0,66	4,262650	
24,013000	0,66	4,390570	
24,024000	0,66	4,474540	
24,035000	0,66	4,512150	
24,046000	0,66	4,510370	
24,057000	0,66	4,480170	
24,068000	0,66	4,433870	
24,079000	0,66	4,385360	
24,090000	0,66	4,345920	
24,101000	0,66	4,326110	
24,112000	0,66	4,337180	
24,123000	0,66	4,393320	
24,134000	0,66	4,504970	
24,145000	0,66	4,698980	
24,156000	0,66	5,052960	
24,167000	0,66	5,762830	
24,178000	0,66	7,237430	
24,189000	0,66	10,132170	
24,200000	0,66	15,354720	
24,211000	0,66	23,999700	
24,222000	0,66	37,542520	
24,233000	0,66	58,040700	
24,244000	0,66	88,407300	
24,255000	0,66	130,014660	
24,266000	0,66	178,534970	
24,277000	0,66	226,966500	
24,288000	0,66	268,772180	
24,299000	0,66	300,272830	
24,310000	0,66	320,866510	
24,321000	0,66	331,670540	
24,332000	0,66	334,299430	
24,343000	0,66	330,521330	
24,354000	0,66	321,869800	
24,365000	0,66	309,598650	
24,376000	0,66	294,828110	
24,387000	0,66	278,350800	
24,398000	0,66	260,754660	
24,409000	0,66	242,660790	
24,420000	0,66	224,453440	
24,431000	0,66	206,571200	
24,442000	0,66	189,207330	
24,453000	0,66	172,546930	
24,464000	0,66	156,873800	
24,475000	0,66	142,330510	
24,486000	0,66	129,024980	
24,497000	0,66	116,962760	
24,508000	0,66	106,137210	
24,519000	0,66	96,522150	
24,530000	0,66	88,017670	
24,541000	0,66	80,525270	
24,552000	0,66	73,857910	
24,563000	0,66	67,834310	
24,574000	0,66	62,311400	
24,585000	0,66	57,165150	
24,596000	0,66	52,312340	
24,607000	0,66	47,692430	
24,618000	0,66	43,300020	
24,629000	0,66	39,144900	
24,640000	0,66	35,268180	
24,651000	0,66	31,680550	
24,662000	0,66	28,422640	
24,673000	0,66	25,495190	
24,684000	0,66	22,906160	
24,695000	0,66	20,629400	
24,706000	0,66	18,655860	
24,717000	0,66	16,949020	
24,728000	0,66	15,483940	
24,739000	0,66	14,223000	
24,750000	0,66	13,140660	
24,761000	0,66	12,202280	
24,772000	0,66	11,389340	
24,783000	0,66	10,682340	
24,794000	0,66	10,061260	
24,805000	0,66	9,511020	
24,816000	0,66	9,026870	
24,827000	0,66	8,591490	
24,838000	0,66	8,193530	
24,849000	0,66	7,820180	
24,860000	0,66	7,461580	
24,871000	0,66	7,107870	
24,882000	0,66	6,754460	
24,893000	0,66	6,396180	
24,904000	0,66	6,041640	
24,915000	0,66	5,698310	
24,926000	0,66	5,373950	
24,937000	0,66	5,073550	
24,948000	0,66	4,807080	
24,959000	0,66	4,576970	
24,970000	0,66	4,386710	
24,981000	0,66	4,226890	
24,992000	0,66	4,093320	
25,003000	0,66	3,984750	
25,014000	0,66	3,894950	
25,025000	0,66	3,822520	
25,036000	0,66	3,761870	
25,047000	0,66	3,707920	
25,058000	0,66	3,657320	
25,069000	0,66	3,608500	
25,080000	0,66	3,558110	
25,091000	0,66	3,503250	
25,102000	0,66	3,440320	
25,113000	0,66	3,378360	
25,124000	0,66	3,314760	
25,135000	0,66	3,254010	
25,146000	0,66	3,198350	
25,157000	0,66	3,140980	
25,168000	0,66	3,087210	
25,179000	0,66	3,041540	
25,190000	0,66	3,000000	
25,201000	0,66	2,965300	
25,212000	0,66	2,939980	
25,223000	0,66	2,926580	
25,234000	0,66	2,923440	
25,245000	0,66	2,931260	
25,256000	0,66	2,952890	
25,267000	0,66	2,981580	
25,278000	0,66	3,020880	
25,289000	0,66	3,066170	
25,300000	0,66	3,114250	
25,311000	0,66	3,166710	
25,322000	0,66	3,223080	
25,333000	0,66	3,279930	
25,344000	0,66	3,340060	
25,355000	0,66	3,400620	
25,366000	0,66	3,457870	
25,377000	0,66	3,505930	
25,388000	0,66	3,539520	
25,399000	0,66	3,560070	
25,410000	0,66	3,563770	
25,421000	0,66	3,546300	
25,432000	0,66	3,510380	
25,443000	0,66	3,456580	
25,454000	0,66	3,387990	
25,465000	0,66	3,307810	
25,476000	0,66	3,217650	
25,487000	0,66	3,119370	
25,498000	0,66	3,010380	
25,509000	0,66	2,898450	
25,520000	0,66	2,791680	
25,531000	0,66	2,692120	
25,542000	0,66	2,603580	
25,553000	0,66	2,525090	
25,564000	0,66	2,455450	
25,575000	0,66	2,397820	
25,586000	0,66	2,351330	
25,597000	0,66	2,310990	
25,608000	0,66	2,277800	
25,619000	0,66	2,246210	
25,630000	0,66	2,218310	
25,641000	0,66	2,190110	
25,652000	0,66	2,159240	
25,663000	0,66	2,127060	
25,674000	0,66	2,095620	
25,685000	0,66	2,065180	
25,696000	0,66	2,035420	
25,707000	0,66	2,006180	
25,718000	0,66	1,980010	
25,729000	0,66	1,955240	
25,740000	0,66	1,932450	
25,751000	0,66	1,908000	
25,762000	0,66	1,892680	
25,773000	0,66	1,881670	
25,784000	0,66	1,868930	
25,795000	0,66	1,863010	
25,806000	0,66	1,857030	
25,817000	0,66	1,850090	
25,828000	0,66	1,845120	
25,839000	0,66	1,842780	
25,850000	0,66	1,838800	
25,861000	0,66	1,835840	
25,872000	0,66	1,830930	
25,883000	0,66	1,824410	
25,894000	0,66	1,821020	
25,905000	0,66	1,813180	
25,916000	0,66	1,805530	
25,927000	0,66	1,799080	
25,938000	0,66	1,789980	
25,949000	0,66	1,779240	
25,960000	0,66	1,770590	
25,971000	0,66	1,761350	
25,982000	0,66	1,753040	
25,993000	0,66	1,746100	
26,004000	0,66	1,739970	
26,015000	0,66	1,734200	
26,026000	0,66	1,727350	
26,037000	0,66	1,722980	
26,048000	0,66	1,717120	
26,059000	0,66	1,710480	
26,070000	0,66	1,704710	
26,081000	0,66	1,699980	
26,092000	0,66	1,696150	
26,103000	0,66	1,693830	
26,114000	0,66	1,690620	
26,125000	0,66	1,686580	
26,136000	0,66	1,685900	
26,147000	0,66	1,687160	
26,158000	0,66	1,687840	
26,169000	0,66	1,686430	
26,180000	0,66	1,685590	
26,191000	0,66	1,689300	
26,202000	0,66	1,694670	
26,213000	0,66	1,697760	
26,224000	0,66	1,702460	
26,235000	0,66	1,706290	
26,246000	0,66	1,711240	
26,257000	0,66	1,714480	
26,268000	0,66	1,718390	
26,279000	0,66	1,721630	
26,290000	0,66	1,722630	
26,301000	0,66	1,722460	
26,312000	0,66	1,723480	
26,323000	0,66	1,721880	
26,334000	0,66	1,717490	
26,345000	0,66	1,711860	
26,356000	0,66	1,701240	
26,367000	0,66	1,689500	
26,378000	0,66	1,678930	
26,389000	0,66	1,672080	
26,400000	0,66	1,664520	
26,411000	0,66	1,657980	
26,422000	0,66	1,651600	
26,433000	0,66	1,646650	
26,444000	0,66	1,641290	
26,455000	0,66	1,637680	
26,466000	0,66	1,634430	
26,477000	0,66	1,636080	
26,488000	0,66	1,638130	
26,499000	0,66	1,636030	
26,510000	0,66	1,636410	
26,521000	0,66	1,640330	
26,532000	0,66	1,643250	
26,543000	0,66	1,647280	
26,554000	0,66	1,647330	
26,565000	0,66	1,648490	
26,576000	0,66	1,649090	
26,587000	0,66	1,650840	
26,598000	0,66	1,651660	
26,609000	0,66	1,650260	
26,620000	0,66	1,648000	
26,631000	0,66	1,646500	
26,642000	0,66	1,643100	
26,653000	0,66	1,635940	
26,664000	0,66	1,631280	
26,675000	0,66	1,629200	
26,686000	0,66	1,623830	
26,697000	0,66	1,616320	
26,708000	0,66	1,611000	
26,719000	0,66	1,606190	
26,730000	0,66	1,606410	
26,741000	0,66	1,602840	
26,752000	0,66	1,597640	
26,763000	0,66	1,597410	
26,774000	0,66	1,597590	
26,785000	0,66	1,600240	
26,796000	0,66	1,600210	
26,807000	0,66	1,595750	
26,818000	0,66	1,594560	
26,829000	0,66	1,594990	
26,840000	0,66	1,593240	
26,851000	0,66	1,589600	
26,862000	0,66	1,585840	
26,873000	0,66	1,584120	
26,884000	0,66	1,582350	
26,895000	0,66	1,578370	
26,906000	0,66	1,578850	
26,917000	0,66	1,581750	
26,928000	0,66	1,584390	
26,939000	0,66	1,584810	
26,950000	0,66	1,585170	
26,961000	0,66	1,589790	
26,972000	0,66	1,595230	
26,983000	0,66	1,600030	
26,994000	0,66	1,607010	
27,005000	0,66	1,614760	
27,016000	0,66	1,620620	
27,027000	0,66	1,629180	
27,038000	0,66	1,634320	
27,049000	0,66	1,637950	
27,060000	0,66	1,636580	
27,071000	0,66	1,632150	
27,082000	0,66	1,628470	
27,093000	0,66	1,622680	
27,104000	0,66	1,615920	
27,115000	0,66	1,607930	
27,126000	0,66	1,605170	
27,137000	0,66	1,602860	
27,148000	0,66	1,595230	
27,159000	0,66	1,583990	
27,170000	0,66	1,576430	
27,181000	0,66	1,574370	
27,192000	0,66	1,572680	
27,203000	0,66	1,571740	
27,214000	0,66	1,572850	
27,225000	0,66	1,573040	
27,236000	0,66	1,572630	
27,247000	0,66	1,578040	
27,258000	0,66	1,581940	
27,269000	0,66	1,582760	
27,280000	0,66	1,582980	
27,291000	0,66	1,581940	
27,302000	0,66	1,578610	
27,313000	0,66	1,576860	
27,324000	0,66	1,574530	
27,335000	0,66	1,573250	
27,346000	0,66	1,572210	
27,357000	0,66	1,573290	
27,368000	0,66	1,573740	
27,379000	0,66	1,570410	
27,390000	0,66	1,568620	
27,401000	0,66	1,566150	
27,412000	0,66	1,563680	
27,423000	0,66	1,563120	
27,434000	0,66	1,564210	
27,445000	0,66	1,564260	
27,456000	0,66	1,565040	
27,467000	0,66	1,565370	
27,478000	0,66	1,565310	
27,489000	0,66	1,565500	
27,500000	0,66	1,564520	
27,511000	0,66	1,563440	
27,522000	0,66	1,564150	
27,533000	0,66	1,565720	
27,544000	0,66	1,565920	
27,555000	0,66	1,565520	
27,566000	0,66	1,564200	
27,577000	0,66	1,564890	
27,588000	0,66	1,567450	
27,599000	0,66	1,568610	
27,610000	0,66	1,570240	
27,621000	0,66	1,571450	
27,632000	0,66	1,572490	
27,643000	0,66	1,569660	
27,654000	0,66	1,563810	
27,665000	0,66	1,559520	
27,676000	0,66	1,556260	
27,687000	0,66	1,554600	
27,698000	0,66	1,552340	
27,709000	0,66	1,551010	
27,720000	0,66	1,547750	
27,731000	0,66	1,547840	
27,742000	0,66	1,547430	
27,753000	0,66	1,544170	
27,764000	0,66	1,544330	
27,775000	0,66	1,544290	
27,786000	0,66	1,542260	
27,797000	0,66	1,542310	
27,808000	0,66	1,542150	
27,819000	0,66	1,544800	
27,830000	0,66	1,546440	
27,841000	0,66	1,548240	
27,852000	0,66	1,553690	
27,863000	0,66	1,556750	
27,874000	0,66	1,561230	
27,885000	0,66	1,567850	
27,896000	0,66	1,574740	
27,907000	0,66	1,583550	
27,918000	0,66	1,585170	
27,929000	0,66	1,586170	
27,940000	0,66	1,585190	
27,951000	0,66	1,584830	
27,962000	0,66	1,583950	
27,973000	0,66	1,582780	
27,984000	0,66	1,582160	
27,995000	0,66	1,581380	
28,006000	0,66	1,580310	
28,017000	0,66	1,577980	
28,028000	0,66	1,577540	
28,039000	0,66	1,574430	
28,050000	0,66	1,573400	
28,061000	0,66	1,570850	
28,072000	0,66	1,570070	
28,083000	0,66	1,568630	
28,094000	0,66	1,568800	
28,105000	0,66	1,570020	
28,116000	0,66	1,570970	
28,127000	0,66	1,573410	
28,138000	0,66	1,578910	
28,149000	0,66	1,583970	
28,160000	0,66	1,589180	
28,171000	0,66	1,595380	
28,182000	0,66	1,602420	
28,193000	0,66	1,608500	
28,204000	0,66	1,615440	
28,215000	0,66	1,625120	
28,226000	0,66	1,631900	
28,237000	0,66	1,636440	
28,248000	0,66	1,640200	
28,259000	0,66	1,643560	
28,270000	0,66	1,650440	
28,281000	0,66	1,657350	
28,292000	0,66	1,666470	
28,303000	0,66	1,678990	
28,314000	0,66	1,689730	
28,325000	0,66	1,705490	
28,336000	0,66	1,722060	
28,347000	0,66	1,737210	
28,358000	0,66	1,752600	
28,369000	0,66	1,772690	
28,380000	0,66	1,796010	
28,391000	0,66	1,821330	
28,402000	0,66	1,851440	
28,413000	0,66	1,880280	
28,424000	0,66	1,916830	
28,435000	0,66	1,959010	
28,446000	0,66	2,000470	
28,457000	0,66	2,046910	
28,468000	0,66	2,091290	
28,479000	0,66	2,142940	
28,490000	0,66	2,199680	
28,501000	0,66	2,262210	
28,512000	0,66	2,325570	
28,523000	0,66	2,395690	
28,534000	0,66	2,465820	
28,545000	0,66	2,534640	
28,556000	0,66	2,602530	
28,567000	0,66	2,672590	
28,578000	0,66	2,737720	
28,589000	0,66	2,797170	
28,600000	0,66	2,850540	
28,611000	0,66	2,895680	
28,622000	0,66	2,933030	
28,633000	0,66	2,962580	
28,644000	0,66	2,986350	
28,655000	0,66	3,007480	
28,666000	0,66	3,030250	
28,677000	0,66	3,051480	
28,688000	0,66	3,067530	
28,699000	0,66	3,085730	
28,710000	0,66	3,106170	
28,721000	0,66	3,129270	
28,732000	0,66	3,158670	
28,743000	0,66	3,187820	
28,754000	0,66	3,214070	
28,765000	0,66	3,236720	
28,776000	0,66	3,255500	
28,787000	0,66	3,272410	
28,798000	0,66	3,286050	
28,809000	0,66	3,297760	
28,820000	0,66	3,301670	
28,831000	0,66	3,297050	
28,842000	0,66	3,287120	
28,853000	0,66	3,268690	
28,864000	0,66	3,243260	
28,875000	0,66	3,209800	
28,886000	0,66	3,164360	
28,897000	0,66	3,112710	
28,908000	0,66	3,058420	
28,919000	0,66	2,998530	
28,930000	0,66	2,934090	
28,941000	0,66	2,873650	
28,952000	0,66	2,819020	
28,963000	0,66	2,765620	
28,974000	0,66	2,716070	
28,985000	0,66	2,671850	
28,996000	0,66	2,630860	
29,007000	0,66	2,593440	
29,018000	0,66	2,559740	
29,029000	0,66	2,531530	
29,040000	0,66	2,503460	
29,051000	0,66	2,477290	
29,062000	0,66	2,453440	
29,073000	0,66	2,424510	
29,084000	0,66	2,394510	
29,095000	0,66	2,363810	
29,106000	0,66	2,332070	
29,117000	0,66	2,300310	
29,128000	0,66	2,270070	
29,139000	0,66	2,244160	
29,150000	0,66	2,222910	
29,161000	0,66	2,199140	
29,172000	0,66	2,179730	
29,183000	0,66	2,164930	
29,194000	0,66	2,149860	
29,205000	0,66	2,135840	
29,216000	0,66	2,123990	
29,227000	0,66	2,118560	
29,238000	0,66	2,108000	
29,249000	0,66	2,099700	
29,260000	0,66	2,092670	
29,271000	0,66	2,092010	
29,282000	0,66	2,090070	
29,293000	0,66	2,089740	
29,304000	0,66	2,091950	
29,315000	0,66	2,097680	
29,326000	0,66	2,103540	
29,337000	0,66	2,108930	
29,348000	0,66	2,117270	
29,359000	0,66	2,123770	
29,370000	0,66	2,125800	
29,381000	0,66	2,124460	
29,392000	0,66	2,121750	
29,403000	0,66	2,113110	
29,414000	0,66	2,104950	
29,425000	0,66	2,092950	
29,436000	0,66	2,077650	
29,447000	0,66	2,060530	
29,458000	0,66	2,040110	
29,469000	0,66	2,021630	
29,480000	0,66	2,005030	
29,491000	0,66	1,988720	
29,502000	0,66	1,976210	
29,513000	0,66	1,966700	
29,524000	0,66	1,959170	
29,535000	0,66	1,949330	
29,546000	0,66	1,937750	
29,557000	0,66	1,929790	
29,568000	0,66	1,922330	
29,579000	0,66	1,915130	
29,590000	0,66	1,910170	
29,601000	0,66	1,907270	
29,612000	0,66	1,905320	
29,623000	0,66	1,898840	
29,634000	0,66	1,892510	
29,645000	0,66	1,889740	
29,656000	0,66	1,885280	
29,667000	0,66	1,880300	
29,678000	0,66	1,873600	
29,689000	0,66	1,870560	
29,700000	0,66	1,868560	
29,711000	0,66	1,864500	
29,722000	0,66	1,862170	
29,733000	0,66	1,862100	
29,744000	0,66	1,860660	
29,755000	0,66	1,856830	
29,766000	0,66	1,852550	
29,777000	0,66	1,848580	
29,788000	0,66	1,842610	
29,799000	0,66	1,840320	
29,810000	0,66	1,837520	
29,821000	0,66	1,833300	
29,832000	0,66	1,833030	
29,843000	0,66	1,832650	
29,854000	0,66	1,828600	
29,865000	0,66	1,825080	
29,876000	0,66	1,821620	
29,887000	0,66	1,820090	
29,898000	0,66	1,817810	
29,909000	0,66	1,815140	
29,920000	0,66	1,811710	
29,931000	0,66	1,809480	
29,942000	0,66	1,802650	
29,953000	0,66	1,797790	
29,964000	0,66	1,797790	
29,975000	0,66	1,799970	
29,986000	0,66	1,796200	
29,997000	0,66	1,793230	
30,008000	0,66	1,790620	
30,019000	0,66	1,788480	
30,030000	0,66	1,789010	
30,041000	0,66	1,785670	
30,052000	0,66	1,782880	
30,063000	0,66	1,781540	
30,074000	0,66	1,781120	
30,085000	0,66	1,779280	
30,096000	0,66	1,776970	
30,107000	0,66	1,775780	
30,118000	0,66	1,775130	
30,129000	0,66	1,774100	
30,140000	0,66	1,772870	
30,151000	0,66	1,771750	
30,162000	0,66	1,771520	
30,173000	0,66	1,770690	
30,184000	0,66	1,770650	
30,195000	0,66	1,775100	
30,206000	0,66	1,773100	
30,217000	0,66	1,771050	
30,228000	0,66	1,771310	
30,239000	0,66	1,773470	
30,250000	0,66	1,776280	
30,261000	0,66	1,774970	
30,272000	0,66	1,774470	
30,283000	0,66	1,776650	
30,294000	0,66	1,776780	
30,305000	0,66	1,775900	
30,316000	0,66	1,775300	
30,327000	0,66	1,773450	
30,338000	0,66	1,772950	
30,349000	0,66	1,773160	
30,360000	0,66	1,771930	
30,371000	0,66	1,771950	
30,382000	0,66	1,771660	
30,393000	0,66	1,769710	
30,404000	0,66	1,771590	
30,415000	0,66	1,773010	
30,426000	0,66	1,769850	
30,437000	0,66	1,767600	
30,448000	0,66	1,768070	
30,459000	0,66	1,769670	
30,470000	0,66	1,770670	
30,481000	0,66	1,770420	
30,492000	0,66	1,768240	
30,503000	0,66	1,768620	
30,514000	0,66	1,768090	
30,525000	0,66	1,769310	
30,536000	0,66	1,769880	
30,547000	0,66	1,772050	
30,558000	0,66	1,772700	
30,569000	0,66	1,776360	
30,580000	0,66	1,775550	
30,591000	0,66	1,778270	
30,602000	0,66	1,776760	
30,613000	0,66	1,772000	
30,624000	0,66	1,770770	
30,635000	0,66	1,771880	
30,646000	0,66	1,770060	
30,657000	0,66	1,770790	
30,668000	0,66	1,770680	
30,679000	0,66	1,771720	
30,690000	0,66	1,773520	
30,701000	0,66	1,777070	
30,712000	0,66	1,774880	
30,723000	0,66	1,772420	
30,734000	0,66	1,771770	
30,745000	0,66	1,773320	
30,756000	0,66	1,770940	
30,767000	0,66	1,774230	
30,778000	0,66	1,778610	
30,789000	0,66	1,782190	
30,800000	0,66	1,780580	
30,811000	0,66	1,778030	
30,822000	0,66	1,776660	
30,833000	0,66	1,777450	
30,844000	0,66	1,779750	
30,855000	0,66	1,779780	
30,866000	0,66	1,779980	
30,877000	0,66	1,782560	
30,888000	0,66	1,781420	
30,899000	0,66	1,778960	
30,910000	0,66	1,777100	
30,921000	0,66	1,777350	
30,932000	0,66	1,775440	
30,943000	0,66	1,770920	
30,954000	0,66	1,768290	
30,965000	0,66	1,769480	
30,976000	0,66	1,771210	
30,987000	0,66	1,772330	
30,998000	0,66	1,774430	
31,009000	0,66	1,774950	
31,020000	0,66	1,774490	
31,031000	0,66	1,773970	
31,042000	0,66	1,774000	
31,053000	0,66	1,774730	
31,064000	0,66	1,773420	
31,075000	0,66	1,773630	
31,086000	0,66	1,773570	
31,097000	0,66	1,773920	
31,108000	0,66	1,774060	
31,119000	0,66	1,773570	
31,130000	0,66	1,775010	
31,141000	0,66	1,778470	
31,152000	0,66	1,778760	
31,163000	0,66	1,776820	
31,174000	0,66	1,776560	
31,185000	0,66	1,774520	
31,196000	0,66	1,773750	
31,207000	0,66	1,774320	
31,218000	0,66	1,775540	
31,229000	0,66	1,776060	
31,240000	0,66	1,775250	
31,251000	0,66	1,774540	
31,262000	0,66	1,776820	
31,273000	0,66	1,777140	
31,284000	0,66	1,775420	
31,295000	0,66	1,775170	
31,306000	0,66	1,774350	
31,317000	0,66	1,774580	
31,328000	0,66	1,774050	
31,339000	0,66	1,772200	
31,350000	0,66	1,771710	
31,361000	0,66	1,771520	
31,372000	0,66	1,773510	
31,383000	0,66	1,774980	
31,394000	0,66	1,774790	
31,405000	0,66	1,775710	
31,416000	0,66	1,776790	
31,427000	0,66	1,774820	
31,438000	0,66	1,773190	
31,449000	0,66	1,772520	
31,460000	0,66	1,772070	
31,471000	0,66	1,771430	
31,482000	0,66	1,771870	
31,493000	0,66	1,772090	
31,504000	0,66	1,770710	
31,515000	0,66	1,772710	
31,526000	0,66	1,774860	
31,537000	0,66	1,772370	
31,548000	0,66	1,771880	
31,559000	0,66	1,772720	
31,570000	0,66	1,773610	
31,581000	0,66	1,774200	
31,592000	0,66	1,775490	
31,603000	0,66	1,773200	
31,614000	0,66	1,771230	
31,625000	0,66	1,772080	
31,636000	0,66	1,773230	
31,647000	0,66	1,772810	
31,658000	0,66	1,771050	
31,669000	0,66	1,770670	
31,680000	0,66	1,771260	
31,691000	0,66	1,772280	
31,702000	0,66	1,772400	
31,713000	0,66	1,771050	
31,724000	0,66	1,769590	
31,735000	0,66	1,768660	
31,746000	0,66	1,769950	
31,757000	0,66	1,769550	
31,768000	0,66	1,768400	
31,779000	0,66	1,766770	
31,790000	0,66	1,762950	
31,801000	0,66	1,761720	
31,812000	0,66	1,760160	
31,823000	0,66	1,761190	
31,834000	0,66	1,762030	
31,845000	0,66	1,759040	
31,856000	0,66	1,754030	
31,867000	0,66	1,752360	
31,878000	0,66	1,755350	
31,889000	0,66	1,757510	
31,900000	0,66	1,755920	
31,911000	0,66	1,753980	
31,922000	0,66	1,753280	
31,933000	0,66	1,751280	
31,944000	0,66	1,751620	
31,955000	0,66	1,752600	
31,966000	0,66	1,752530	
31,977000	0,66	1,751280	
31,988000	0,66	1,750810	
31,999000	0,66	1,749970	
32,010000	0,66	1,752760	
32,021000	0,66	1,751050	
32,032000	0,66	1,749440	
32,043000	0,66	1,749490	
32,054000	0,66	1,748050	
32,065000	0,66	1,750110	
32,076000	0,66	1,748010	
32,087000	0,66	1,745020	
32,098000	0,66	1,743950	
32,109000	0,66	1,740820	
32,120000	0,66	1,740020	
32,131000	0,66	1,741580	
32,142000	0,66	1,741080	
32,153000	0,66	1,743630	
32,164000	0,66	1,741380	
32,175000	0,66	1,737330	
32,186000	0,66	1,737780	
32,197000	0,66	1,739180	
32,208000	0,66	1,739750	
32,219000	0,66	1,739700	
32,230000	0,66	1,739070	
32,241000	0,66	1,737750	
32,252000	0,66	1,737890	
32,263000	0,66	1,738440	
32,274000	0,66	1,739000	
32,285000	0,66	1,736990	
32,296000	0,66	1,734910	
32,307000	0,66	1,735870	
32,318000	0,66	1,737570	
32,329000	0,66	1,737490	
32,340000	0,66	1,735710	
32,351000	0,66	1,734300	
32,362000	0,66	1,733740	
32,373000	0,66	1,734780	
32,384000	0,66	1,736300	
32,395000	0,66	1,735500	
32,406000	0,66	1,733380	
32,417000	0,66	1,732510	
32,428000	0,66	1,733110	
32,439000	0,66	1,732230	
32,450000	0,66	1,732310	
32,461000	0,66	1,734510	
32,472000	0,66	1,734340	
32,483000	0,66	1,735010	
32,494000	0,66	1,735800	
32,505000	0,66	1,735220	
32,516000	0,66	1,733940	
32,527000	0,66	1,734270	
32,538000	0,66	1,733420	
32,549000	0,66	1,731600	
32,560000	0,66	1,732800	
32,571000	0,66	1,733530	
32,582000	0,66	1,732670	
32,593000	0,66	1,732080	
32,604000	0,66	1,726850	
32,615000	0,66	1,726620	
32,626000	0,66	1,726010	
32,637000	0,66	1,725080	
32,648000	0,66	1,724710	
32,659000	0,66	1,727170	
32,670000	0,66	1,729520	
32,681000	0,66	1,727860	
32,692000	0,66	1,729690	
32,703000	0,66	1,729110	
32,714000	0,66	1,728540	
32,725000	0,66	1,725620	
32,736000	0,66	1,725270	
32,747000	0,66	1,727160	
32,758000	0,66	1,729990	
32,769000	0,66	1,731100	
32,780000	0,66	1,731120	
32,791000	0,66	1,731580	
32,802000	0,66	1,728610	
32,813000	0,66	1,728140	
32,824000	0,66	1,729670	
32,835000	0,66	1,729070	
32,846000	0,66	1,727400	
32,857000	0,66	1,726060	
32,868000	0,66	1,724570	
32,879000	0,66	1,722140	
32,890000	0,66	1,719380	
32,901000	0,66	1,718110	
32,912000	0,66	1,721500	
32,923000	0,66	1,722490	
32,934000	0,66	1,719050	
32,945000	0,66	1,716140	
32,956000	0,66	1,715910	
32,967000	0,66	1,717840	
32,978000	0,66	1,721020	
32,989000	0,66	1,726170	
33,000000	0,66	1,727980	
33,011000	0,66	1,727130	
33,022000	0,66	1,724710	
33,033000	0,66	1,720690	
33,044000	0,66	1,719660	
33,055000	0,66	1,721560	
33,066000	0,66	1,721970	
33,077000	0,66	1,722030	
33,088000	0,66	1,723550	
33,099000	0,66	1,724550	
33,110000	0,66	1,724200	
33,121000	0,66	1,722810	
33,132000	0,66	1,721760	
33,143000	0,66	1,721660	
33,154000	0,66	1,722810	
33,165000	0,66	1,724410	
33,176000	0,66	1,724240	
33,187000	0,66	1,725300	
33,198000	0,66	1,727150	
33,209000	0,66	1,728560	
33,220000	0,66	1,732600	
33,231000	0,66	1,731010	
33,242000	0,66	1,730250	
33,253000	0,66	1,728810	
33,264000	0,66	1,731330	
33,275000	0,66	1,731890	
33,286000	0,66	1,735070	
33,297000	0,66	1,733600	
33,308000	0,66	1,732380	
33,319000	0,66	1,732350	
33,330000	0,66	1,737440	
33,341000	0,66	1,739180	
33,352000	0,66	1,741630	
33,363000	0,66	1,743570	
33,374000	0,66	1,744440	
33,385000	0,66	1,742580	
33,396000	0,66	1,740540	
33,407000	0,66	1,740520	
33,418000	0,66	1,742360	
33,429000	0,66	1,742680	
33,440000	0,66	1,743220	
33,451000	0,66	1,743360	
33,462000	0,66	1,744280	
33,473000	0,66	1,746240	
33,484000	0,66	1,747440	
33,495000	0,66	1,746910	
33,506000	0,66	1,745450	
33,517000	0,66	1,747020	
33,528000	0,66	1,750260	
33,539000	0,66	1,754090	
33,550000	0,66	1,752550	
33,561000	0,66	1,752950	
33,572000	0,66	1,753040	
33,583000	0,66	1,752500	
33,594000	0,66	1,750120	
33,605000	0,66	1,748490	
33,616000	0,66	1,749000	
33,627000	0,66	1,750890	
33,638000	0,66	1,751620	
33,649000	0,66	1,752210	
33,660000	0,66	1,752220	
33,671000	0,66	1,751190	
33,682000	0,66	1,750370	
33,693000	0,66	1,753270	
33,704000	0,66	1,755110	
33,715000	0,66	1,754680	
33,726000	0,66	1,755030	
33,737000	0,66	1,755970	
33,748000	0,66	1,755000	
33,759000	0,66	1,752820	
33,770000	0,66	1,750970	
33,781000	0,66	1,750480	
33,792000	0,66	1,751650	
33,803000	0,66	1,752660	
33,814000	0,66	1,753880	
33,825000	0,66	1,752300	
33,836000	0,66	1,748910	
33,847000	0,66	1,749450	
33,858000	0,66	1,750440	
33,869000	0,66	1,749940	
33,880000	0,66	1,752970	
33,891000	0,66	1,751570	
33,902000	0,66	1,751110	
33,913000	0,66	1,750230	
33,924000	0,66	1,752160	
33,935000	0,66	1,754480	
33,946000	0,66	1,752440	
33,957000	0,66	1,750740	
33,968000	0,66	1,748700	
33,979000	0,66	1,747190	
33,990000	0,66	1,746280	
34,001000	0,66	1,746520	
34,012000	0,66	1,745400	
34,023000	0,66	1,744760	
34,034000	0,66	1,745640	
34,045000	0,66	1,745920	
34,056000	0,66	1,745930	
34,067000	0,66	1,746360	
34,078000	0,66	1,748690	
34,089000	0,66	1,747780	
34,100000	0,66	1,746770	
34,111000	0,66	1,746950	
34,122000	0,66	1,745280	
34,133000	0,66	1,744840	
34,144000	0,66	1,744370	
34,155000	0,66	1,741790	
34,166000	0,66	1,741010	
34,177000	0,66	1,739000	
34,188000	0,66	1,739640	
34,199000	0,66	1,744530	
34,210000	0,66	1,745180	
34,221000	0,66	1,744160	
34,232000	0,66	1,742460	
34,243000	0,66	1,741470	
34,254000	0,66	1,742870	
34,265000	0,66	1,744070	
34,276000	0,66	1,743660	
34,287000	0,66	1,743590	
34,298000	0,66	1,745400	
34,309000	0,66	1,745020	
34,320000	0,66	1,747070	
34,331000	0,66	1,745550	
34,342000	0,66	1,745000	
34,353000	0,66	1,747360	
34,364000	0,66	1,748400	
34,375000	0,66	1,749860	
34,386000	0,66	1,751820	
34,397000	0,66	1,752200	
34,408000	0,66	1,750770	
34,419000	0,66	1,747220	
34,430000	0,66	1,746820	
34,441000	0,66	1,747620	
34,452000	0,66	1,745630	
34,463000	0,66	1,746240	
34,474000	0,66	1,747430	
34,485000	0,66	1,746840	
34,496000	0,66	1,746370	
34,507000	0,66	1,746510	
34,518000	0,66	1,746620	
34,529000	0,66	1,745740	
34,540000	0,66	1,748260	
34,551000	0,66	1,748380	
34,562000	0,66	1,747960	
34,573000	0,66	1,750580	
34,584000	0,66	1,751600	
34,595000	0,66	1,752130	
34,606000	0,66	1,752680	
34,617000	0,66	1,756720	
34,628000	0,66	1,758450	
34,639000	0,66	1,755070	
34,650000	0,66	1,752490	
34,661000	0,66	1,752880	
34,672000	0,66	1,751720	
34,683000	0,66	1,750940	
34,694000	0,66	1,749770	
34,705000	0,66	1,749980	
34,716000	0,66	1,749500	
34,727000	0,66	1,751550	
34,738000	0,66	1,754570	
34,749000	0,66	1,757630	
34,760000	0,66	1,760010	
34,771000	0,66	1,758230	
34,782000	0,66	1,759910	
34,793000	0,66	1,760980	
34,804000	0,66	1,763170	
34,815000	0,66	1,761740	
34,826000	0,66	1,762460	
34,837000	0,66	1,764100	
34,848000	0,66	1,760640	
34,859000	0,66	1,761830	
34,870000	0,66	1,761660	
34,881000	0,66	1,762410	
34,892000	0,66	1,762810	
34,903000	0,66	1,762700	
34,914000	0,66	1,765220	
34,925000	0,66	1,767680	
34,936000	0,66	1,763530	
34,947000	0,66	1,762510	
34,958000	0,66	1,761520	
34,969000	0,66	1,759590	
34,980000	0,66	1,761730	
34,991000	0,66	1,762730	
35,002000	0,66	1,764720	
35,013000	0,66	1,766940	
35,024000	0,66	1,771600	
35,035000	0,66	1,772620	
35,046000	0,66	1,771630	
35,057000	0,66	1,770290	
35,068000	0,66	1,770340	
35,079000	0,66	1,770180	
35,090000	0,66	1,770060	
35,101000	0,66	1,770910	
35,112000	0,66	1,773150	
35,123000	0,66	1,775980	
35,134000	0,66	1,778930	
35,145000	0,66	1,781940	
35,156000	0,66	1,782030	
35,167000	0,66	1,780150	
35,178000	0,66	1,778810	
35,189000	0,66	1,778310	
35,200000	0,66	1,780460	
35,211000	0,66	1,781180	
35,222000	0,66	1,779590	
35,233000	0,66	1,781800	
35,244000	0,66	1,783750	
35,255000	0,66	1,783190	
35,266000	0,66	1,782020	
35,277000	0,66	1,781860	
35,288000	0,66	1,781150	
35,299000	0,66	1,782160	
35,310000	0,66	1,786310	
35,321000	0,66	1,786830	
35,332000	0,66	1,785910	
35,343000	0,66	1,785740	
35,354000	0,66	1,788760	
35,365000	0,66	1,789440	
35,376000	0,66	1,790450	
35,387000	0,66	1,790520	
35,398000	0,66	1,795910	
35,409000	0,66	1,797060	
35,420000	0,66	1,796630	
35,431000	0,66	1,796210	
35,442000	0,66	1,793930	
35,453000	0,66	1,790910	
35,464000	0,66	1,790080	
35,475000	0,66	1,792440	
35,486000	0,66	1,793810	
35,497000	0,66	1,795140	
35,508000	0,66	1,798990	
35,519000	0,66	1,801750	
35,530000	0,66	1,806670	
35,541000	0,66	1,805090	
35,552000	0,66	1,804160	
35,563000	0,66	1,804190	
35,574000	0,66	1,804190	
35,585000	0,66	1,801040	
35,596000	0,66	1,799350	
35,607000	0,66	1,802710	
35,618000	0,66	1,804780	
35,629000	0,66	1,805630	
35,640000	0,66	1,806080	
35,651000	0,66	1,807830	
35,662000	0,66	1,808340	
35,673000	0,66	1,806390	
35,684000	0,66	1,804720	
35,695000	0,66	1,803940	
35,706000	0,66	1,802000	
35,717000	0,66	1,804820	
35,728000	0,66	1,808050	
35,739000	0,66	1,807680	
35,750000	0,66	1,807120	
35,761000	0,66	1,806650	
35,772000	0,66	1,806660	
35,783000	0,66	1,805600	
35,794000	0,66	1,807900	
35,805000	0,66	1,810070	
35,816000	0,66	1,810470	
35,827000	0,66	1,809760	
35,838000	0,66	1,810390	
35,849000	0,66	1,811420	
35,860000	0,66	1,810790	
35,871000	0,66	1,810850	
35,882000	0,66	1,811190	
35,893000	0,66	1,813100	
35,904000	0,66	1,815460	
35,915000	0,66	1,817560	
35,926000	0,66	1,819160	
35,937000	0,66	1,817940	
35,948000	0,66	1,819390	
35,959000	0,66	1,820350	
35,970000	0,66	1,819700	
35,981000	0,66	1,820890	
35,992000	0,66	1,819260	
36,003000	0,66	1,819760	
36,014000	0,66	1,822740	
36,025000	0,66	1,827940	
36,036000	0,66	1,829920	
36,047000	0,66	1,828650	
36,058000	0,66	1,827350	
36,069000	0,66	1,829670	
36,080000	0,66	1,829510	
36,091000	0,66	1,830910	
36,102000	0,66	1,832990	
36,113000	0,66	1,833800	
36,124000	0,66	1,831490	
36,135000	0,66	1,831510	
36,146000	0,66	1,835140	
36,157000	0,66	1,835360	
36,168000	0,66	1,837070	
36,179000	0,66	1,842600	
36,190000	0,66	1,848450	
36,201000	0,66	1,851350	
36,212000	0,66	1,849930	
36,223000	0,66	1,850610	
36,234000	0,66	1,855250	
36,245000	0,66	1,857110	
36,256000	0,66	1,857180	
36,267000	0,66	1,859600	
36,278000	0,66	1,861370	
36,289000	0,66	1,863700	
36,300000	0,66	1,868520	
36,311000	0,66	1,873070	
36,322000	0,66	1,874360	
36,333000	0,66	1,875350	
36,344000	0,66	1,877800	
36,355000	0,66	1,881350	
36,366000	0,66	1,885730	
36,377000	0,66	1,888160	
36,388000	0,66	1,891770	
36,399000	0,66	1,898160	
36,410000	0,66	1,903400	
36,421000	0,66	1,907090	
36,432000	0,66	1,912650	
36,443000	0,66	1,920130	
36,454000	0,66	1,925990	
36,465000	0,66	1,928710	
36,476000	0,66	1,934300	
36,487000	0,66	1,939520	
36,498000	0,66	1,945800	
36,509000	0,66	1,949610	
36,520000	0,66	1,949610	
36,531000	0,66	1,951680	
36,542000	0,66	1,951650	
36,553000	0,66	1,949460	
36,564000	0,66	1,949420	
36,575000	0,66	1,950040	
36,586000	0,66	1,948660	
36,597000	0,66	1,945960	
36,608000	0,66	1,943870	
36,619000	0,66	1,940480	
36,630000	0,66	1,935770	
36,641000	0,66	1,930850	
36,652000	0,66	1,928990	
36,663000	0,66	1,930510	
36,674000	0,66	1,930370	
36,685000	0,66	1,928980	
36,696000	0,66	1,925680	
36,707000	0,66	1,924120	
36,718000	0,66	1,923260	
36,729000	0,66	1,923260	
36,740000	0,66	1,923820	
36,751000	0,66	1,921760	
36,762000	0,66	1,922140	
36,773000	0,66	1,923170	
36,784000	0,66	1,921320	
36,795000	0,66	1,922290	
36,806000	0,66	1,923870	
36,817000	0,66	1,927890	
36,828000	0,66	1,931830	
36,839000	0,66	1,932960	
36,850000	0,66	1,933690	
36,861000	0,66	1,933520	
36,872000	0,66	1,932560	
36,883000	0,66	1,938320	
36,894000	0,66	1,940850	
36,905000	0,66	1,940760	
36,916000	0,66	1,943180	
36,927000	0,66	1,948020	
36,938000	0,66	1,947220	
36,949000	0,66	1,948010	
36,960000	0,66	1,951440	
36,971000	0,66	1,956130	
36,982000	0,66	1,960200	
36,993000	0,66	1,962340	
37,004000	0,66	1,964020	
37,015000	0,66	1,964270	
37,026000	0,66	1,968790	
37,037000	0,66	1,970170	
37,048000	0,66	1,975700	
37,059000	0,66	1,978950	
37,070000	0,66	1,985470	
37,081000	0,66	1,989820	
37,092000	0,66	1,991580	
37,103000	0,66	1,993740	
37,114000	0,66	1,999630	
37,125000	0,66	2,005310	
37,136000	0,66	2,009390	
37,147000	0,66	2,013700	
37,158000	0,66	2,021900	
37,169000	0,66	2,028560	
37,180000	0,66	2,033160	
37,191000	0,66	2,036440	
37,202000	0,66	2,040760	
37,213000	0,66	2,046460	
37,224000	0,66	2,054440	
37,235000	0,66	2,062020	
37,246000	0,66	2,064670	
37,257000	0,66	2,067180	
37,268000	0,66	2,073060	
37,279000	0,66	2,077820	
37,290000	0,66	2,081700	
37,301000	0,66	2,088690	
37,312000	0,66	2,094450	
37,323000	0,66	2,097130	
37,334000	0,66	2,103690	
37,345000	0,66	2,113570	
37,356000	0,66	2,119270	
37,367000	0,66	2,125560	
37,378000	0,66	2,131600	
37,389000	0,66	2,136190	
37,400000	0,66	2,143150	
37,411000	0,66	2,148730	
37,422000	0,66	2,153350	
37,433000	0,66	2,160140	
37,444000	0,66	2,168570	
37,455000	0,66	2,175610	
37,466000	0,66	2,180850	
37,477000	0,66	2,187760	
37,488000	0,66	2,195100	
37,499000	0,66	2,200660	
37,510000	0,66	2,206100	
37,521000	0,66	2,214850	
37,532000	0,66	2,223650	
37,543000	0,66	2,233110	
37,554000	0,66	2,240660	
37,565000	0,66	2,248450	
37,576000	0,66	2,257080	
37,587000	0,66	2,262730	
37,598000	0,66	2,269510	
37,609000	0,66	2,274570	
37,620000	0,66	2,281010	
37,631000	0,66	2,289300	
37,642000	0,66	2,297390	
37,653000	0,66	2,306720	
37,664000	0,66	2,313070	
37,675000	0,66	2,322270	
37,686000	0,66	2,332000	
37,697000	0,66	2,339140	
37,708000	0,66	2,346820	
37,719000	0,66	2,355740	
37,730000	0,66	2,362270	
37,741000	0,66	2,369160	
37,752000	0,66	2,373460	
37,763000	0,66	2,380200	
37,774000	0,66	2,387900	
37,785000	0,66	2,397680	
37,796000	0,66	2,406380	
37,807000	0,66	2,413590	
37,818000	0,66	2,421420	
37,829000	0,66	2,428820	
37,840000	0,66	2,437700	
37,851000	0,66	2,446610	
37,862000	0,66	2,452940	
37,873000	0,66	2,457800	
37,884000	0,66	2,462840	
37,895000	0,66	2,470390	
37,906000	0,66	2,476320	
37,917000	0,66	2,481990	
37,928000	0,66	2,491000	
37,939000	0,66	2,500420	
37,950000	0,66	2,508250	
37,961000	0,66	2,515490	
37,972000	0,66	2,521020	
37,983000	0,66	2,524290	
37,994000	0,66	2,529420	
38,005000	0,66	2,537010	
38,016000	0,66	2,547170	
38,027000	0,66	2,555280	
38,038000	0,66	2,561910	
38,049000	0,66	2,571540	
38,060000	0,66	2,580530	
38,071000	0,66	2,589420	
38,082000	0,66	2,595220	
38,093000	0,66	2,603860	
38,104000	0,66	2,612850	
38,115000	0,66	2,621760	
38,126000	0,66	2,632810	
38,137000	0,66	2,642340	
38,148000	0,66	2,651490	
38,159000	0,66	2,658870	
38,170000	0,66	2,671950	
38,181000	0,66	2,684680	
38,192000	0,66	2,697860	
38,203000	0,66	2,710380	
38,214000	0,66	2,722320	
38,225000	0,66	2,735210	
38,236000	0,66	2,748840	
38,247000	0,66	2,762000	
38,258000	0,66	2,776930	
38,269000	0,66	2,789440	
38,280000	0,66	2,804370	
38,291000	0,66	2,819010	
38,302000	0,66	2,834290	
38,313000	0,66	2,850300	
38,324000	0,66	2,867790	
38,335000	0,66	2,885330	
38,346000	0,66	2,906710	
38,357000	0,66	2,934410	
38,368000	0,66	2,962020	
38,379000	0,66	2,988070	
38,390000	0,66	3,014790	
38,401000	0,66	3,035120	
38,412000	0,66	3,051320	
38,423000	0,66	3,066210	
38,434000	0,66	3,072500	
38,445000	0,66	3,073750	
38,456000	0,66	3,077250	
38,467000	0,66	3,076680	
38,478000	0,66	3,071930	
38,489000	0,66	3,069070	
38,500000	0,66	3,066040	
38,511000	0,66	3,065740	
38,522000	0,66	3,066210	
38,533000	0,66	3,069770	
38,544000	0,66	3,075410	
38,555000	0,66	3,079740	
38,566000	0,66	3,084560	
38,577000	0,66	3,092070	
38,588000	0,66	3,097910	
38,599000	0,66	3,101540	
38,610000	0,66	3,107900	
38,621000	0,66	3,114670	
38,632000	0,66	3,119780	
38,643000	0,66	3,124330	
38,654000	0,66	3,125260	
38,665000	0,66	3,126740	
38,676000	0,66	3,131440	
38,687000	0,66	3,136230	
38,698000	0,66	3,143740	
38,709000	0,66	3,150360	
38,720000	0,66	3,155050	
38,731000	0,66	3,157490	
38,742000	0,66	3,157860	
38,753000	0,66	3,160090	
38,764000	0,66	3,165110	
38,775000	0,66	3,167220	
38,786000	0,66	3,170090	
38,797000	0,66	3,170940	
38,808000	0,66	3,172460	
38,819000	0,66	3,175080	
38,830000	0,66	3,178140	
38,841000	0,66	3,177060	
38,852000	0,66	3,175860	
38,863000	0,66	3,177480	
38,874000	0,66	3,178640	
38,885000	0,66	3,176790	
38,896000	0,66	3,178590	
38,907000	0,66	3,179730	
38,918000	0,66	3,184450	
38,929000	0,66	3,187250	
38,940000	0,66	3,189270	
38,951000	0,66	3,191900	
38,962000	0,66	3,195430	
38,973000	0,66	3,200930	
38,984000	0,66	3,205470	
38,995000	0,66	3,212420	
39,006000	0,66	3,216150	
39,017000	0,66	3,220370	
39,028000	0,66	3,223140	
39,039000	0,66	3,228230	
39,050000	0,66	3,236970	
39,061000	0,66	3,246770	
39,072000	0,66	3,253370	
39,083000	0,66	3,256850	
39,094000	0,66	3,264110	
39,105000	0,66	3,272540	
39,116000	0,66	3,283250	
39,127000	0,66	3,291330	
39,138000	0,66	3,298460	
39,149000	0,66	3,304570	
39,160000	0,66	3,309480	
39,171000	0,66	3,316420	
39,182000	0,66	3,325650	
39,193000	0,66	3,332710	
39,204000	0,66	3,341290	
39,215000	0,66	3,350270	
39,226000	0,66	3,358160	
39,237000	0,66	3,366460	
39,248000	0,66	3,371820	
39,259000	0,66	3,378720	
39,270000	0,66	3,388860	
39,281000	0,66	3,395600	
39,292000	0,66	3,397920	
39,303000	0,66	3,401630	
39,314000	0,66	3,407830	
39,325000	0,66	3,415050	
39,336000	0,66	3,423090	
39,347000	0,66	3,430020	
39,358000	0,66	3,435680	
39,369000	0,66	3,442670	
39,380000	0,66	3,449690	
39,391000	0,66	3,456960	
39,402000	0,66	3,466620	
39,413000	0,66	3,474500	
39,424000	0,66	3,484380	
39,435000	0,66	3,493480	
39,446000	0,66	3,502110	
39,457000	0,66	3,513420	
39,468000	0,66	3,524490	
39,479000	0,66	3,535370	
39,490000	0,66	3,547690	
39,501000	0,66	3,566020	
39,512000	0,66	3,585000	
39,523000	0,66	3,602990	
39,534000	0,66	3,623450	
39,545000	0,66	3,645960	
39,556000	0,66	3,665830	
39,567000	0,66	3,686550	
39,578000	0,66	3,704750	
39,589000	0,66	3,725430	
39,600000	0,66	3,749600	
39,611000	0,66	3,775220	
39,622000	0,66	3,798400	
39,633000	0,66	3,821080	
39,644000	0,66	3,845470	
39,655000	0,66	3,870910	
39,666000	0,66	3,895500	
39,677000	0,66	3,918270	
39,688000	0,66	3,938490	
39,699000	0,66	3,956010	
39,710000	0,66	3,974370	
39,721000	0,66	3,991260	
39,732000	0,66	4,004270	
39,743000	0,66	4,012720	
39,754000	0,66	4,020570	
39,765000	0,66	4,028370	
39,776000	0,66	4,034190	
39,787000	0,66	4,037480	
39,798000	0,66	4,039490	
39,809000	0,66	4,040800	
39,820000	0,66	4,044290	
39,831000	0,66	4,042400	
39,842000	0,66	4,040520	
39,853000	0,66	4,042460	
39,864000	0,66	4,042670	
39,875000	0,66	4,041190	
39,886000	0,66	4,038210	
39,897000	0,66	4,035920	
39,908000	0,66	4,032260	
39,919000	0,66	4,030080	
39,930000	0,66	4,032010	
39,941000	0,66	4,032970	
39,952000	0,66	4,029700	
39,963000	0,66	4,026710	
39,974000	0,66	4,025700	
39,985000	0,66	4,024230	
39,996000	0,66	4,024640	
40,007000	0,66	4,027320	
