Filepath	C:\Chromel\data\Analytik\Walther group\Guido\mechanosense\GCR260.SEQ\UV_VIS_2.CHL\7494.acd
Channel	UV_VIS_2

Sample Information:
Datasource	PC-8NN4M2J_local
Sequence	Analytik\Walther group\Guido\mechanosense\GCR260.SEQ
Sample	200717-14
Sample Number	320
Sample Position	RC4
Sample ID	7494
Comment	260-P5-5
QNT method	default
PGM file	single-component-3 40min 60C 0,4mLmin
Type	unknown
Status	finished
Date	17.07.2020
Time	20:20:38
Injection Volume (µl)	100,00
Dilution Factor	1,000000
Amount	1,000000
Weight	1,000000

Raw Data Header Information:
Time Min. (min)	0,000
Time Max. (min)	40,007
Raw-Time Min. (min)	0,000
Raw-Time Max. (min)	40,007
Data Points	3638
Detector	VWD3000.dll
Preferred Read Mode	Unknown
Write Mode	Unknown
Data System	Chromeleon
Version High	06
Version Low	80
Build No.	3160
File Format Version	11
Generation Type	8
File ID	239054205
File Status	16
GUID	e6d2c07c-c859-11ea-b409-00184d71f7da
Signal Factor	0,000010
Signal Dimension	mAU
Signal Unit	Absorbance
Signal Min.	-1,35822
Signal Max.	75,560520
Channel Name	UV_VIS_2
Driver Name	VWD-3x00 Detector
Min. Step	66
Max. Step	66
Average Step	66

Signal Parameter Information:
Signal Info	WVL:556 nm
Wavelength	556 nm
	 




















Raw Data:
Time(min)	Step(sec)	Value(mAU)
0,000000	0,00	-0,020100	
0,011000	0,66	-0,017060	
0,022000	0,66	0,015070	
0,033000	0,66	0,038400	
0,044000	0,66	0,042960	
0,055000	0,66	0,058630	
0,066000	0,66	0,070480	
0,077000	0,66	0,061790	
0,088000	0,66	0,062010	
0,099000	0,66	0,039690	
0,110000	0,66	0,041100	
0,121000	0,66	0,039050	
0,132000	0,66	0,035610	
0,143000	0,66	0,029180	
0,154000	0,66	0,015420	
0,165000	0,66	0,023830	
0,176000	0,66	0,033680	
0,187000	0,66	0,041300	
0,198000	0,66	0,057780	
0,209000	0,66	0,034040	
0,220000	0,66	0,036100	
0,231000	0,66	0,031760	
0,242000	0,66	0,029990	
0,253000	0,66	0,030580	
0,264000	0,66	0,041700	
0,275000	0,66	0,045600	
0,286000	0,66	0,045100	
0,297000	0,66	0,043490	
0,308000	0,66	0,049740	
0,319000	0,66	0,048470	
0,330000	0,66	0,035060	
0,341000	0,66	0,030320	
0,352000	0,66	0,043690	
0,363000	0,66	0,045450	
0,374000	0,66	0,033340	
0,385000	0,66	0,039130	
0,396000	0,66	0,051930	
0,407000	0,66	0,054070	
0,418000	0,66	0,050330	
0,429000	0,66	0,043260	
0,440000	0,66	0,031010	
0,451000	0,66	0,026350	
0,462000	0,66	0,038400	
0,473000	0,66	0,043570	
0,484000	0,66	0,030670	
0,495000	0,66	0,020610	
0,506000	0,66	0,030730	
0,517000	0,66	0,045470	
0,528000	0,66	0,038780	
0,539000	0,66	0,056820	
0,550000	0,66	0,059330	
0,561000	0,66	0,071600	
0,572000	0,66	0,075630	
0,583000	0,66	0,053720	
0,594000	0,66	0,051310	
0,605000	0,66	0,056760	
0,616000	0,66	0,049840	
0,627000	0,66	0,068070	
0,638000	0,66	0,091000	
0,649000	0,66	0,076650	
0,660000	0,66	0,081760	
0,671000	0,66	0,068110	
0,682000	0,66	0,069780	
0,693000	0,66	0,056430	
0,704000	0,66	0,041340	
0,715000	0,66	0,031700	
0,726000	0,66	0,028060	
0,737000	0,66	0,048070	
0,748000	0,66	0,044820	
0,759000	0,66	0,038910	
0,770000	0,66	0,049380	
0,781000	0,66	0,066010	
0,792000	0,66	0,067240	
0,803000	0,66	0,066880	
0,814000	0,66	0,058240	
0,825000	0,66	0,040070	
0,836000	0,66	0,034220	
0,847000	0,66	0,036090	
0,858000	0,66	0,045740	
0,869000	0,66	0,064930	
0,880000	0,66	0,071350	
0,891000	0,66	0,068540	
0,902000	0,66	0,071140	
0,913000	0,66	0,067040	
0,924000	0,66	0,063710	
0,935000	0,66	0,065640	
0,946000	0,66	0,057270	
0,957000	0,66	0,045790	
0,968000	0,66	0,043160	
0,979000	0,66	0,039460	
0,990000	0,66	0,037660	
1,001000	0,66	0,050440	
1,012000	0,66	0,056670	
1,023000	0,66	0,058200	
1,034000	0,66	0,060910	
1,045000	0,66	0,060310	
1,056000	0,66	0,055630	
1,067000	0,66	0,044840	
1,078000	0,66	0,037460	
1,089000	0,66	0,030950	
1,100000	0,66	0,024010	
1,111000	0,66	0,030250	
1,122000	0,66	0,034270	
1,133000	0,66	0,026740	
1,144000	0,66	0,028350	
1,155000	0,66	0,035600	
1,166000	0,66	0,040480	
1,177000	0,66	0,039470	
1,188000	0,66	0,041600	
1,199000	0,66	0,045620	
1,210000	0,66	0,050550	
1,221000	0,66	0,056090	
1,232000	0,66	0,048540	
1,243000	0,66	0,053200	
1,254000	0,66	0,062020	
1,265000	0,66	0,066470	
1,276000	0,66	0,054100	
1,287000	0,66	0,039620	
1,298000	0,66	0,014580	
1,309000	0,66	-0,074250	
1,320000	0,66	-0,246490	
1,331000	0,66	-0,471730	
1,342000	0,66	-0,649180	
1,353000	0,66	-0,717430	
1,364000	0,66	-0,651310	
1,375000	0,66	-0,510470	
1,386000	0,66	-0,342950	
1,397000	0,66	-0,180090	
1,408000	0,66	-0,042470	
1,419000	0,66	0,061120	
1,430000	0,66	0,131490	
1,441000	0,66	0,191320	
1,452000	0,66	0,213740	
1,463000	0,66	0,249450	
1,474000	0,66	0,285970	
1,485000	0,66	0,324110	
1,496000	0,66	0,361640	
1,507000	0,66	0,383640	
1,518000	0,66	0,452250	
1,529000	0,66	0,523870	
1,540000	0,66	0,598990	
1,551000	0,66	0,681150	
1,562000	0,66	0,719480	
1,573000	0,66	0,756740	
1,584000	0,66	0,775510	
1,595000	0,66	0,791560	
1,606000	0,66	0,781390	
1,617000	0,66	0,714790	
1,628000	0,66	0,644860	
1,639000	0,66	0,550030	
1,650000	0,66	0,410280	
1,661000	0,66	0,279960	
1,672000	0,66	0,140550	
1,683000	0,66	0,021670	
1,694000	0,66	-0,067230	
1,705000	0,66	-0,139230	
1,716000	0,66	-0,169310	
1,727000	0,66	-0,149000	
1,738000	0,66	-0,115700	
1,749000	0,66	-0,085210	
1,760000	0,66	-0,055070	
1,771000	0,66	-0,036110	
1,782000	0,66	-0,020300	
1,793000	0,66	0,018500	
1,804000	0,66	0,064330	
1,815000	0,66	0,099690	
1,826000	0,66	0,143480	
1,837000	0,66	0,179080	
1,848000	0,66	0,205360	
1,859000	0,66	0,234620	
1,870000	0,66	0,257980	
1,881000	0,66	0,273090	
1,892000	0,66	0,274190	
1,903000	0,66	0,292350	
1,914000	0,66	0,302300	
1,925000	0,66	0,300030	
1,936000	0,66	0,312850	
1,947000	0,66	0,333680	
1,958000	0,66	0,333900	
1,969000	0,66	0,327100	
1,980000	0,66	0,331340	
1,991000	0,66	0,339140	
2,002000	0,66	0,331760	
2,013000	0,66	0,328790	
2,024000	0,66	0,323720	
2,035000	0,66	0,336060	
2,046000	0,66	0,327580	
2,057000	0,66	0,334280	
2,068000	0,66	0,348290	
2,079000	0,66	0,350890	
2,090000	0,66	0,363820	
2,101000	0,66	0,360060	
2,112000	0,66	0,370210	
2,123000	0,66	0,383200	
2,134000	0,66	0,376670	
2,145000	0,66	0,369570	
2,156000	0,66	0,356170	
2,167000	0,66	0,329040	
2,178000	0,66	0,206340	
2,189000	0,66	-0,092020	
2,200000	0,66	-0,548610	
2,211000	0,66	-0,978770	
2,222000	0,66	-1,259920	
2,233000	0,66	-1,358220	
2,244000	0,66	-1,310400	
2,255000	0,66	-1,178910	
2,266000	0,66	-1,013480	
2,277000	0,66	-0,825820	
2,288000	0,66	-0,656710	
2,299000	0,66	-0,503990	
2,310000	0,66	-0,371620	
2,321000	0,66	-0,265230	
2,332000	0,66	-0,166810	
2,343000	0,66	-0,112090	
2,354000	0,66	-0,084030	
2,365000	0,66	-0,053630	
2,376000	0,66	-0,033550	
2,387000	0,66	-0,016240	
2,398000	0,66	-0,006860	
2,409000	0,66	-0,011510	
2,420000	0,66	-0,008030	
2,431000	0,66	-0,014430	
2,442000	0,66	-0,015540	
2,453000	0,66	0,004320	
2,464000	0,66	0,002550	
2,475000	0,66	0,004470	
2,486000	0,66	0,024010	
2,497000	0,66	0,030780	
2,508000	0,66	0,038490	
2,519000	0,66	0,058450	
2,530000	0,66	0,072150	
2,541000	0,66	0,061830	
2,552000	0,66	0,062130	
2,563000	0,66	0,061170	
2,574000	0,66	0,054570	
2,585000	0,66	0,054480	
2,596000	0,66	0,056770	
2,607000	0,66	0,051390	
2,618000	0,66	0,060710	
2,629000	0,66	0,061600	
2,640000	0,66	0,063960	
2,651000	0,66	0,067010	
2,662000	0,66	0,065230	
2,673000	0,66	0,060990	
2,684000	0,66	0,060320	
2,695000	0,66	0,053370	
2,706000	0,66	0,050290	
2,717000	0,66	0,036450	
2,728000	0,66	0,033020	
2,739000	0,66	0,027270	
2,750000	0,66	0,035830	
2,761000	0,66	0,041530	
2,772000	0,66	0,036070	
2,783000	0,66	0,042210	
2,794000	0,66	0,044610	
2,805000	0,66	0,035420	
2,816000	0,66	0,045950	
2,827000	0,66	0,050590	
2,838000	0,66	0,047210	
2,849000	0,66	0,046320	
2,860000	0,66	0,043930	
2,871000	0,66	0,043930	
2,882000	0,66	0,038330	
2,893000	0,66	0,032240	
2,904000	0,66	0,027050	
2,915000	0,66	0,020700	
2,926000	0,66	0,022100	
2,937000	0,66	0,020620	
2,948000	0,66	0,018070	
2,959000	0,66	0,033180	
2,970000	0,66	0,056340	
2,981000	0,66	0,063970	
2,992000	0,66	0,060830	
3,003000	0,66	0,059950	
3,014000	0,66	0,057590	
3,025000	0,66	0,052390	
3,036000	0,66	0,055720	
3,047000	0,66	0,044310	
3,058000	0,66	0,037150	
3,069000	0,66	0,041350	
3,080000	0,66	0,053610	
3,091000	0,66	0,065190	
3,102000	0,66	0,054960	
3,113000	0,66	0,048830	
3,124000	0,66	0,044810	
3,135000	0,66	0,037120	
3,146000	0,66	0,037420	
3,157000	0,66	0,048170	
3,168000	0,66	0,059050	
3,179000	0,66	0,054810	
3,190000	0,66	0,049790	
3,201000	0,66	0,056550	
3,212000	0,66	0,054810	
3,223000	0,66	0,042650	
3,234000	0,66	0,046580	
3,245000	0,66	0,050650	
3,256000	0,66	0,042510	
3,267000	0,66	0,033210	
3,278000	0,66	0,030980	
3,289000	0,66	0,031960	
3,300000	0,66	0,037330	
3,311000	0,66	0,047010	
3,322000	0,66	0,046210	
3,333000	0,66	0,057860	
3,344000	0,66	0,045520	
3,355000	0,66	0,028090	
3,366000	0,66	0,034510	
3,377000	0,66	0,039200	
3,388000	0,66	0,045510	
3,399000	0,66	0,049240	
3,410000	0,66	0,059570	
3,421000	0,66	0,045840	
3,432000	0,66	0,044250	
3,443000	0,66	0,046340	
3,454000	0,66	0,063980	
3,465000	0,66	0,060840	
3,476000	0,66	0,047760	
3,487000	0,66	0,054050	
3,498000	0,66	0,042290	
3,509000	0,66	0,034530	
3,520000	0,66	0,035760	
3,531000	0,66	0,028740	
3,542000	0,66	0,023660	
3,553000	0,66	0,020230	
3,564000	0,66	0,001100	
3,575000	0,66	0,005240	
3,586000	0,66	0,022100	
3,597000	0,66	0,021010	
3,608000	0,66	0,031340	
3,619000	0,66	0,042830	
3,630000	0,66	0,054660	
3,641000	0,66	0,044680	
3,652000	0,66	0,035100	
3,663000	0,66	0,044970	
3,674000	0,66	0,052190	
3,685000	0,66	0,042260	
3,696000	0,66	0,042520	
3,707000	0,66	0,034780	
3,718000	0,66	0,041280	
3,729000	0,66	0,041340	
3,740000	0,66	0,028790	
3,751000	0,66	0,016690	
3,762000	0,66	0,017300	
3,773000	0,66	0,028030	
3,784000	0,66	0,044510	
3,795000	0,66	0,046730	
3,806000	0,66	0,041360	
3,817000	0,66	0,051140	
3,828000	0,66	0,059380	
3,839000	0,66	0,046830	
3,850000	0,66	0,035680	
3,861000	0,66	0,037880	
3,872000	0,66	0,030910	
3,883000	0,66	0,024260	
3,894000	0,66	0,021280	
3,905000	0,66	0,020560	
3,916000	0,66	0,030900	
3,927000	0,66	0,028700	
3,938000	0,66	0,025060	
3,949000	0,66	0,022450	
3,960000	0,66	0,024440	
3,971000	0,66	0,012660	
3,982000	0,66	0,011630	
3,993000	0,66	0,021230	
4,004000	0,66	0,025480	
4,015000	0,66	0,019430	
4,026000	0,66	0,007790	
4,037000	0,66	0,010930	
4,048000	0,66	0,021370	
4,059000	0,66	0,030570	
4,070000	0,66	0,031260	
4,081000	0,66	0,022970	
4,092000	0,66	0,015720	
4,103000	0,66	0,007100	
4,114000	0,66	0,009400	
4,125000	0,66	0,023450	
4,136000	0,66	0,038060	
4,147000	0,66	0,040470	
4,158000	0,66	0,036260	
4,169000	0,66	0,024800	
4,180000	0,66	0,026860	
4,191000	0,66	0,037300	
4,202000	0,66	0,035210	
4,213000	0,66	0,023570	
4,224000	0,66	0,003090	
4,235000	0,66	0,025490	
4,246000	0,66	0,034730	
4,257000	0,66	0,043580	
4,268000	0,66	0,049270	
4,279000	0,66	0,046320	
4,290000	0,66	0,040020	
4,301000	0,66	0,027980	
4,312000	0,66	0,027520	
4,323000	0,66	0,022590	
4,334000	0,66	0,027370	
4,345000	0,66	0,034310	
4,356000	0,66	0,044860	
4,367000	0,66	0,035290	
4,378000	0,66	0,031310	
4,389000	0,66	0,042620	
4,400000	0,66	0,042070	
4,411000	0,66	0,043280	
4,422000	0,66	0,040310	
4,433000	0,66	0,037610	
4,444000	0,66	0,035150	
4,455000	0,66	0,037410	
4,466000	0,66	0,041530	
4,477000	0,66	0,036900	
4,488000	0,66	0,028210	
4,499000	0,66	0,020420	
4,510000	0,66	0,020420	
4,521000	0,66	0,030760	
4,532000	0,66	0,028410	
4,543000	0,66	0,025320	
4,554000	0,66	0,030900	
4,565000	0,66	0,025110	
4,576000	0,66	0,026120	
4,587000	0,66	0,033030	
4,598000	0,66	0,034080	
4,609000	0,66	0,044670	
4,620000	0,66	0,054430	
4,631000	0,66	0,049700	
4,642000	0,66	0,033120	
4,653000	0,66	0,038760	
4,664000	0,66	0,064780	
4,675000	0,66	0,075750	
4,686000	0,66	0,054270	
4,697000	0,66	0,045260	
4,708000	0,66	0,043550	
4,719000	0,66	0,045270	
4,730000	0,66	0,039070	
4,741000	0,66	0,030620	
4,752000	0,66	0,017520	
4,763000	0,66	0,022480	
4,774000	0,66	0,044490	
4,785000	0,66	0,051560	
4,796000	0,66	0,053670	
4,807000	0,66	0,039230	
4,818000	0,66	0,028960	
4,829000	0,66	0,032010	
4,840000	0,66	0,024950	
4,851000	0,66	0,033170	
4,862000	0,66	0,029210	
4,873000	0,66	0,039110	
4,884000	0,66	0,046870	
4,895000	0,66	0,044400	
4,906000	0,66	0,046000	
4,917000	0,66	0,040270	
4,928000	0,66	0,024410	
4,939000	0,66	0,044490	
4,950000	0,66	0,056720	
4,961000	0,66	0,055810	
4,972000	0,66	0,043270	
4,983000	0,66	0,041030	
4,994000	0,66	0,058510	
5,005000	0,66	0,047940	
5,016000	0,66	0,050220	
5,027000	0,66	0,041040	
5,038000	0,66	0,041130	
5,049000	0,66	0,036420	
5,060000	0,66	0,037640	
5,071000	0,66	0,039100	
5,082000	0,66	0,036780	
5,093000	0,66	0,041660	
5,104000	0,66	0,047630	
5,115000	0,66	0,029470	
5,126000	0,66	0,030460	
5,137000	0,66	0,040020	
5,148000	0,66	0,041930	
5,159000	0,66	0,034720	
5,170000	0,66	0,035700	
5,181000	0,66	0,022370	
5,192000	0,66	0,016090	
5,203000	0,66	0,018010	
5,214000	0,66	0,020740	
5,225000	0,66	0,023400	
5,236000	0,66	0,020280	
5,247000	0,66	0,025690	
5,258000	0,66	0,028450	
5,269000	0,66	0,025990	
5,280000	0,66	0,025710	
5,291000	0,66	0,020210	
5,302000	0,66	0,014060	
5,313000	0,66	0,012930	
5,324000	0,66	0,022240	
5,335000	0,66	0,035960	
5,346000	0,66	0,047510	
5,357000	0,66	0,049070	
5,368000	0,66	0,053340	
5,379000	0,66	0,043630	
5,390000	0,66	0,036460	
5,401000	0,66	0,027660	
5,412000	0,66	0,008510	
5,423000	0,66	0,011060	
5,434000	0,66	0,026820	
5,445000	0,66	0,021490	
5,456000	0,66	0,035150	
5,467000	0,66	0,033480	
5,478000	0,66	0,035460	
5,489000	0,66	0,039090	
5,500000	0,66	0,054340	
5,511000	0,66	0,044760	
5,522000	0,66	0,048080	
5,533000	0,66	0,055460	
5,544000	0,66	0,064790	
5,555000	0,66	0,054110	
5,566000	0,66	0,037780	
5,577000	0,66	0,041370	
5,588000	0,66	0,049420	
5,599000	0,66	0,043540	
5,610000	0,66	0,037340	
5,621000	0,66	0,037710	
5,632000	0,66	0,031810	
5,643000	0,66	0,041790	
5,654000	0,66	0,046130	
5,665000	0,66	0,035010	
5,676000	0,66	0,037870	
5,687000	0,66	0,037810	
5,698000	0,66	0,039080	
5,709000	0,66	0,043440	
5,720000	0,66	0,049100	
5,731000	0,66	0,050240	
5,742000	0,66	0,046020	
5,753000	0,66	0,035160	
5,764000	0,66	0,038440	
5,775000	0,66	0,033840	
5,786000	0,66	0,023380	
5,797000	0,66	0,022920	
5,808000	0,66	0,023440	
5,819000	0,66	0,026520	
5,830000	0,66	0,018580	
5,841000	0,66	0,010630	
5,852000	0,66	0,019630	
5,863000	0,66	0,026960	
5,874000	0,66	0,019140	
5,885000	0,66	0,019900	
5,896000	0,66	0,023980	
5,907000	0,66	0,009390	
5,918000	0,66	-0,005240	
5,929000	0,66	-0,003780	
5,940000	0,66	0,002300	
5,951000	0,66	0,004660	
5,962000	0,66	0,013110	
5,973000	0,66	0,023970	
5,984000	0,66	0,017400	
5,995000	0,66	0,007760	
6,006000	0,66	0,012910	
6,017000	0,66	0,011250	
6,028000	0,66	0,004000	
6,039000	0,66	0,019640	
6,050000	0,66	0,017070	
6,061000	0,66	-0,001390	
6,072000	0,66	-0,004780	
6,083000	0,66	0,006230	
6,094000	0,66	0,009430	
6,105000	0,66	-0,006380	
6,116000	0,66	-0,013380	
6,127000	0,66	-0,012220	
6,138000	0,66	0,007060	
6,149000	0,66	0,025090	
6,160000	0,66	0,034670	
6,171000	0,66	0,024570	
6,182000	0,66	-0,013600	
6,193000	0,66	-0,041450	
6,204000	0,66	-0,040190	
6,215000	0,66	-0,025790	
6,226000	0,66	-0,021260	
6,237000	0,66	-0,028040	
6,248000	0,66	-0,027870	
6,259000	0,66	-0,047690	
6,270000	0,66	-0,050010	
6,281000	0,66	-0,054100	
6,292000	0,66	-0,051600	
6,303000	0,66	-0,061740	
6,314000	0,66	-0,069600	
6,325000	0,66	-0,068590	
6,336000	0,66	-0,065240	
6,347000	0,66	-0,069320	
6,358000	0,66	-0,054570	
6,369000	0,66	-0,054600	
6,380000	0,66	-0,047640	
6,391000	0,66	-0,046270	
6,402000	0,66	-0,017930	
6,413000	0,66	-0,008280	
6,424000	0,66	-0,010620	
6,435000	0,66	-0,016660	
6,446000	0,66	-0,025410	
6,457000	0,66	-0,026680	
6,468000	0,66	-0,023640	
6,479000	0,66	-0,017440	
6,490000	0,66	-0,029460	
6,501000	0,66	-0,033380	
6,512000	0,66	-0,033700	
6,523000	0,66	-0,017660	
6,534000	0,66	-0,011390	
6,545000	0,66	-0,016770	
6,556000	0,66	-0,028170	
6,567000	0,66	-0,037300	
6,578000	0,66	-0,040450	
6,589000	0,66	-0,042960	
6,600000	0,66	-0,040290	
6,611000	0,66	-0,024680	
6,622000	0,66	-0,008270	
6,633000	0,66	-0,012230	
6,644000	0,66	-0,026860	
6,655000	0,66	-0,033180	
6,666000	0,66	-0,036810	
6,677000	0,66	-0,032480	
6,688000	0,66	-0,021700	
6,699000	0,66	-0,022760	
6,710000	0,66	-0,025500	
6,721000	0,66	-0,021550	
6,732000	0,66	-0,020740	
6,743000	0,66	-0,030600	
6,754000	0,66	-0,019660	
6,765000	0,66	0,001250	
6,776000	0,66	-0,007910	
6,787000	0,66	-0,017390	
6,798000	0,66	-0,021900	
6,809000	0,66	-0,023010	
6,820000	0,66	-0,034920	
6,831000	0,66	-0,027120	
6,842000	0,66	-0,028100	
6,853000	0,66	-0,027870	
6,864000	0,66	-0,041720	
6,875000	0,66	-0,035430	
6,886000	0,66	-0,036830	
6,897000	0,66	-0,016440	
6,908000	0,66	-0,010130	
6,919000	0,66	-0,024380	
6,930000	0,66	-0,033470	
6,941000	0,66	-0,029050	
6,952000	0,66	-0,020830	
6,963000	0,66	-0,003220	
6,974000	0,66	-0,006160	
6,985000	0,66	-0,022750	
6,996000	0,66	-0,026560	
7,007000	0,66	-0,028450	
7,018000	0,66	-0,030390	
7,029000	0,66	-0,042890	
7,040000	0,66	-0,037490	
7,051000	0,66	-0,035930	
7,062000	0,66	-0,028430	
7,073000	0,66	-0,020240	
7,084000	0,66	-0,023750	
7,095000	0,66	-0,025360	
7,106000	0,66	-0,003980	
7,117000	0,66	0,010530	
7,128000	0,66	-0,007880	
7,139000	0,66	-0,017360	
7,150000	0,66	-0,009560	
7,161000	0,66	-0,015220	
7,172000	0,66	-0,016820	
7,183000	0,66	-0,010810	
7,194000	0,66	-0,017120	
7,205000	0,66	-0,004200	
7,216000	0,66	0,001270	
7,227000	0,66	-0,012120	
7,238000	0,66	-0,012280	
7,249000	0,66	-0,017910	
7,260000	0,66	-0,027960	
7,271000	0,66	-0,029540	
7,282000	0,66	-0,018930	
7,293000	0,66	-0,027070	
7,304000	0,66	-0,036720	
7,315000	0,66	-0,031720	
7,326000	0,66	-0,034760	
7,337000	0,66	-0,051870	
7,348000	0,66	-0,074170	
7,359000	0,66	-0,081720	
7,370000	0,66	-0,069810	
7,381000	0,66	-0,048800	
7,392000	0,66	-0,043700	
7,403000	0,66	-0,048200	
7,414000	0,66	-0,049080	
7,425000	0,66	-0,046130	
7,436000	0,66	-0,033370	
7,447000	0,66	-0,036410	
7,458000	0,66	-0,027780	
7,469000	0,66	-0,030200	
7,480000	0,66	-0,039460	
7,491000	0,66	-0,026140	
7,502000	0,66	-0,004670	
7,513000	0,66	-0,005970	
7,524000	0,66	-0,011020	
7,535000	0,66	-0,020280	
7,546000	0,66	-0,027720	
7,557000	0,66	-0,029820	
7,568000	0,66	-0,038950	
7,579000	0,66	-0,023610	
7,590000	0,66	-0,029980	
7,601000	0,66	-0,028650	
7,612000	0,66	-0,026140	
7,623000	0,66	-0,012240	
7,634000	0,66	-0,030750	
7,645000	0,66	-0,028380	
7,656000	0,66	-0,023640	
7,667000	0,66	-0,011410	
7,678000	0,66	-0,009370	
7,689000	0,66	-0,016010	
7,700000	0,66	-0,034890	
7,711000	0,66	-0,053810	
7,722000	0,66	-0,049490	
7,733000	0,66	-0,045390	
7,744000	0,66	-0,048090	
7,755000	0,66	-0,059710	
7,766000	0,66	-0,049360	
7,777000	0,66	-0,044060	
7,788000	0,66	-0,041950	
7,799000	0,66	-0,039710	
7,810000	0,66	-0,037380	
7,821000	0,66	-0,012340	
7,832000	0,66	-0,005270	
7,843000	0,66	-0,012180	
7,854000	0,66	-0,017450	
7,865000	0,66	-0,027110	
7,876000	0,66	-0,033200	
7,887000	0,66	-0,025140	
7,898000	0,66	-0,032540	
7,909000	0,66	-0,039540	
7,920000	0,66	-0,041780	
7,931000	0,66	-0,046370	
7,942000	0,66	-0,053200	
7,953000	0,66	-0,048190	
7,964000	0,66	-0,032000	
7,975000	0,66	-0,028740	
7,986000	0,66	-0,032920	
7,997000	0,66	-0,030440	
8,008000	0,66	-0,014890	
8,019000	0,66	-0,007170	
8,030000	0,66	-0,008200	
8,041000	0,66	-0,008790	
8,052000	0,66	-0,007400	
8,063000	0,66	-0,011220	
8,074000	0,66	-0,020110	
8,085000	0,66	-0,009640	
8,096000	0,66	-0,002910	
8,107000	0,66	-0,003470	
8,118000	0,66	-0,005140	
8,129000	0,66	-0,005550	
8,140000	0,66	0,007720	
8,151000	0,66	0,003240	
8,162000	0,66	-0,005830	
8,173000	0,66	-0,013340	
8,184000	0,66	-0,017280	
8,195000	0,66	-0,013870	
8,206000	0,66	-0,016780	
8,217000	0,66	-0,012420	
8,228000	0,66	-0,031630	
8,239000	0,66	-0,055620	
8,250000	0,66	-0,028920	
8,261000	0,66	-0,010900	
8,272000	0,66	-0,013150	
8,283000	0,66	-0,024450	
8,294000	0,66	-0,024450	
8,305000	0,66	-0,023410	
8,316000	0,66	-0,030190	
8,327000	0,66	-0,020250	
8,338000	0,66	-0,009760	
8,349000	0,66	-0,009520	
8,360000	0,66	-0,036280	
8,371000	0,66	-0,037330	
8,382000	0,66	-0,036360	
8,393000	0,66	-0,029820	
8,404000	0,66	-0,031840	
8,415000	0,66	-0,024120	
8,426000	0,66	-0,016050	
8,437000	0,66	-0,017520	
8,448000	0,66	-0,012210	
8,459000	0,66	-0,003460	
8,470000	0,66	-0,003240	
8,481000	0,66	-0,009030	
8,492000	0,66	-0,022800	
8,503000	0,66	-0,031940	
8,514000	0,66	-0,049040	
8,525000	0,66	-0,050790	
8,536000	0,66	-0,035650	
8,547000	0,66	-0,025010	
8,558000	0,66	-0,033030	
8,569000	0,66	-0,041790	
8,580000	0,66	-0,057100	
8,591000	0,66	-0,051970	
8,602000	0,66	-0,038550	
8,613000	0,66	-0,044880	
8,624000	0,66	-0,063160	
8,635000	0,66	-0,056020	
8,646000	0,66	-0,045300	
8,657000	0,66	-0,056110	
8,668000	0,66	-0,053960	
8,679000	0,66	-0,045730	
8,690000	0,66	-0,043200	
8,701000	0,66	-0,045050	
8,712000	0,66	-0,051000	
8,723000	0,66	-0,041740	
8,734000	0,66	-0,022620	
8,745000	0,66	-0,010640	
8,756000	0,66	-0,012940	
8,767000	0,66	-0,031220	
8,778000	0,66	-0,041780	
8,789000	0,66	-0,040070	
8,800000	0,66	-0,038720	
8,811000	0,66	-0,033190	
8,822000	0,66	-0,034720	
8,833000	0,66	-0,042790	
8,844000	0,66	-0,040190	
8,855000	0,66	-0,033170	
8,866000	0,66	-0,050120	
8,877000	0,66	-0,053150	
8,888000	0,66	-0,044150	
8,899000	0,66	-0,046050	
8,910000	0,66	-0,045840	
8,921000	0,66	-0,053880	
8,932000	0,66	-0,063180	
8,943000	0,66	-0,055520	
8,954000	0,66	-0,042230	
8,965000	0,66	-0,046220	
8,976000	0,66	-0,061260	
8,987000	0,66	-0,044030	
8,998000	0,66	-0,045440	
9,009000	0,66	-0,056670	
9,020000	0,66	-0,065080	
9,031000	0,66	-0,042080	
9,042000	0,66	-0,034850	
9,053000	0,66	-0,022570	
9,064000	0,66	-0,022480	
9,075000	0,66	-0,021520	
9,086000	0,66	-0,030580	
9,097000	0,66	-0,049450	
9,108000	0,66	-0,045500	
9,119000	0,66	-0,031120	
9,130000	0,66	-0,015530	
9,141000	0,66	-0,034610	
9,152000	0,66	-0,053970	
9,163000	0,66	-0,045260	
9,174000	0,66	-0,042820	
9,185000	0,66	-0,039160	
9,196000	0,66	-0,035680	
9,207000	0,66	-0,032630	
9,218000	0,66	-0,039850	
9,229000	0,66	-0,047480	
9,240000	0,66	-0,044450	
9,251000	0,66	-0,046150	
9,262000	0,66	-0,047320	
9,273000	0,66	-0,025920	
9,284000	0,66	-0,017320	
9,295000	0,66	-0,009780	
9,306000	0,66	-0,006440	
9,317000	0,66	0,000100	
9,328000	0,66	-0,010040	
9,339000	0,66	-0,014410	
9,350000	0,66	0,000580	
9,361000	0,66	0,001950	
9,372000	0,66	-0,010810	
9,383000	0,66	-0,032290	
9,394000	0,66	-0,043980	
9,405000	0,66	-0,045030	
9,416000	0,66	-0,041250	
9,427000	0,66	-0,018550	
9,438000	0,66	-0,008540	
9,449000	0,66	-0,024160	
9,460000	0,66	-0,032120	
9,471000	0,66	-0,030000	
9,482000	0,66	-0,031760	
9,493000	0,66	-0,040950	
9,504000	0,66	-0,046380	
9,515000	0,66	-0,044970	
9,526000	0,66	-0,040100	
9,537000	0,66	-0,044560	
9,548000	0,66	-0,032730	
9,559000	0,66	-0,020850	
9,570000	0,66	-0,008270	
9,581000	0,66	-0,000970	
9,592000	0,66	-0,008900	
9,603000	0,66	-0,015780	
9,614000	0,66	-0,012310	
9,625000	0,66	-0,025470	
9,636000	0,66	-0,012820	
9,647000	0,66	-0,004090	
9,658000	0,66	0,008680	
9,669000	0,66	0,017410	
9,680000	0,66	0,002330	
9,691000	0,66	-0,001400	
9,702000	0,66	-0,018060	
9,713000	0,66	-0,010980	
9,724000	0,66	-0,007260	
9,735000	0,66	-0,016160	
9,746000	0,66	-0,026500	
9,757000	0,66	-0,030500	
9,768000	0,66	-0,039100	
9,779000	0,66	-0,042460	
9,790000	0,66	-0,043420	
9,801000	0,66	-0,048210	
9,812000	0,66	-0,046860	
9,823000	0,66	-0,045460	
9,834000	0,66	-0,049580	
9,845000	0,66	-0,040890	
9,856000	0,66	-0,016980	
9,867000	0,66	-0,008660	
9,878000	0,66	-0,010660	
9,889000	0,66	-0,018360	
9,900000	0,66	-0,028680	
9,911000	0,66	-0,033380	
9,922000	0,66	-0,044740	
9,933000	0,66	-0,049650	
9,944000	0,66	-0,052470	
9,955000	0,66	-0,051040	
9,966000	0,66	-0,042430	
9,977000	0,66	-0,033790	
9,988000	0,66	-0,037210	
9,999000	0,66	-0,028210	
10,010000	0,66	-0,017200	
10,021000	0,66	-0,020440	
10,032000	0,66	-0,023750	
10,043000	0,66	-0,020330	
10,054000	0,66	-0,007250	
10,065000	0,66	0,005380	
10,076000	0,66	0,001310	
10,087000	0,66	-0,023360	
10,098000	0,66	-0,038070	
10,109000	0,66	-0,028520	
10,120000	0,66	-0,024550	
10,131000	0,66	-0,025510	
10,142000	0,66	-0,017690	
10,153000	0,66	-0,027410	
10,164000	0,66	-0,036790	
10,175000	0,66	-0,021230	
10,186000	0,66	-0,006060	
10,197000	0,66	0,007220	
10,208000	0,66	0,002220	
10,219000	0,66	-0,011120	
10,230000	0,66	-0,022750	
10,241000	0,66	-0,018220	
10,252000	0,66	-0,026810	
10,263000	0,66	-0,032060	
10,274000	0,66	-0,040900	
10,285000	0,66	-0,048460	
10,296000	0,66	-0,031640	
10,307000	0,66	-0,007250	
10,318000	0,66	0,005430	
10,329000	0,66	0,002630	
10,340000	0,66	-0,024850	
10,351000	0,66	-0,024540	
10,362000	0,66	-0,026780	
10,373000	0,66	-0,021250	
10,384000	0,66	-0,027710	
10,395000	0,66	-0,035950	
10,406000	0,66	-0,040790	
10,417000	0,66	-0,055390	
10,428000	0,66	-0,045050	
10,439000	0,66	-0,030850	
10,450000	0,66	-0,012550	
10,461000	0,66	-0,011480	
10,472000	0,66	-0,021060	
10,483000	0,66	-0,031680	
10,494000	0,66	-0,044100	
10,505000	0,66	-0,052100	
10,516000	0,66	-0,051940	
10,527000	0,66	-0,052530	
10,538000	0,66	-0,044210	
10,549000	0,66	-0,041450	
10,560000	0,66	-0,062590	
10,571000	0,66	-0,062390	
10,582000	0,66	-0,038770	
10,593000	0,66	-0,025110	
10,604000	0,66	-0,026960	
10,615000	0,66	-0,032410	
10,626000	0,66	-0,034980	
10,637000	0,66	-0,019150	
10,648000	0,66	-0,018010	
10,659000	0,66	-0,015270	
10,670000	0,66	-0,034360	
10,681000	0,66	-0,031190	
10,692000	0,66	-0,026640	
10,703000	0,66	-0,027290	
10,714000	0,66	-0,035000	
10,725000	0,66	-0,030300	
10,736000	0,66	-0,017190	
10,747000	0,66	-0,001210	
10,758000	0,66	0,005960	
10,769000	0,66	-0,003940	
10,780000	0,66	-0,010660	
10,791000	0,66	-0,004930	
10,802000	0,66	0,009220	
10,813000	0,66	-0,000640	
10,824000	0,66	-0,015870	
10,835000	0,66	-0,015490	
10,846000	0,66	-0,023080	
10,857000	0,66	-0,018950	
10,868000	0,66	-0,008380	
10,879000	0,66	-0,003600	
10,890000	0,66	-0,017940	
10,901000	0,66	-0,036330	
10,912000	0,66	-0,024240	
10,923000	0,66	-0,014850	
10,934000	0,66	-0,025590	
10,945000	0,66	-0,013770	
10,956000	0,66	-0,012640	
10,967000	0,66	-0,012770	
10,978000	0,66	-0,017820	
10,989000	0,66	-0,014470	
11,000000	0,66	-0,011390	
11,011000	0,66	-0,005970	
11,022000	0,66	-0,005260	
11,033000	0,66	-0,001270	
11,044000	0,66	-0,002240	
11,055000	0,66	-0,008870	
11,066000	0,66	-0,013540	
11,077000	0,66	-0,024320	
11,088000	0,66	-0,039560	
11,099000	0,66	-0,030630	
11,110000	0,66	-0,027930	
11,121000	0,66	-0,027770	
11,132000	0,66	-0,047630	
11,143000	0,66	-0,038600	
11,154000	0,66	-0,017380	
11,165000	0,66	-0,022340	
11,176000	0,66	-0,003350	
11,187000	0,66	-0,004400	
11,198000	0,66	-0,015850	
11,209000	0,66	-0,026180	
11,220000	0,66	-0,017720	
11,231000	0,66	-0,012520	
11,242000	0,66	-0,008730	
11,253000	0,66	-0,028670	
11,264000	0,66	-0,040590	
11,275000	0,66	-0,038450	
11,286000	0,66	-0,026710	
11,297000	0,66	-0,027100	
11,308000	0,66	-0,027330	
11,319000	0,66	-0,034200	
11,330000	0,66	-0,019360	
11,341000	0,66	-0,000660	
11,352000	0,66	-0,009480	
11,363000	0,66	-0,023580	
11,374000	0,66	-0,036080	
11,385000	0,66	-0,032060	
11,396000	0,66	-0,039230	
11,407000	0,66	-0,038760	
11,418000	0,66	-0,026750	
11,429000	0,66	-0,022080	
11,440000	0,66	-0,026290	
11,451000	0,66	-0,021490	
11,462000	0,66	-0,016680	
11,473000	0,66	-0,030770	
11,484000	0,66	-0,024050	
11,495000	0,66	-0,009540	
11,506000	0,66	-0,010450	
11,517000	0,66	-0,008530	
11,528000	0,66	-0,022690	
11,539000	0,66	-0,046650	
11,550000	0,66	-0,051580	
11,561000	0,66	-0,041030	
11,572000	0,66	-0,036550	
11,583000	0,66	-0,044000	
11,594000	0,66	-0,050370	
11,605000	0,66	-0,051550	
11,616000	0,66	-0,038180	
11,627000	0,66	-0,039110	
11,638000	0,66	-0,032320	
11,649000	0,66	-0,047140	
11,660000	0,66	-0,054880	
11,671000	0,66	-0,048410	
11,682000	0,66	-0,034580	
11,693000	0,66	-0,019400	
11,704000	0,66	-0,025750	
11,715000	0,66	-0,035170	
11,726000	0,66	-0,033990	
11,737000	0,66	-0,023310	
11,748000	0,66	-0,027830	
11,759000	0,66	-0,030980	
11,770000	0,66	-0,026400	
11,781000	0,66	-0,034160	
11,792000	0,66	-0,036320	
11,803000	0,66	-0,034830	
11,814000	0,66	-0,046650	
11,825000	0,66	-0,040260	
11,836000	0,66	-0,026830	
11,847000	0,66	0,001190	
11,858000	0,66	-0,006050	
11,869000	0,66	-0,007020	
11,880000	0,66	-0,016140	
11,891000	0,66	-0,031680	
11,902000	0,66	-0,030650	
11,913000	0,66	-0,011740	
11,924000	0,66	-0,011570	
11,935000	0,66	-0,008820	
11,946000	0,66	-0,021480	
11,957000	0,66	-0,025740	
11,968000	0,66	-0,025410	
11,979000	0,66	-0,018040	
11,990000	0,66	-0,032890	
12,001000	0,66	-0,033000	
12,012000	0,66	-0,024860	
12,023000	0,66	-0,023810	
12,034000	0,66	-0,012990	
12,045000	0,66	-0,014920	
12,056000	0,66	-0,018390	
12,067000	0,66	-0,012490	
12,078000	0,66	-0,007080	
12,089000	0,66	-0,008370	
12,100000	0,66	-0,023480	
12,111000	0,66	-0,033570	
12,122000	0,66	-0,029980	
12,133000	0,66	-0,030180	
12,144000	0,66	-0,028490	
12,155000	0,66	-0,021830	
12,166000	0,66	0,000020	
12,177000	0,66	0,017360	
12,188000	0,66	0,019180	
12,199000	0,66	0,007800	
12,210000	0,66	-0,008610	
12,221000	0,66	-0,005650	
12,232000	0,66	-0,002760	
12,243000	0,66	-0,016930	
12,254000	0,66	-0,022310	
12,265000	0,66	-0,013090	
12,276000	0,66	-0,008950	
12,287000	0,66	-0,000470	
12,298000	0,66	0,003940	
12,309000	0,66	0,003630	
12,320000	0,66	-0,001240	
12,331000	0,66	-0,005440	
12,342000	0,66	-0,011700	
12,353000	0,66	-0,009760	
12,364000	0,66	-0,022760	
12,375000	0,66	-0,052360	
12,386000	0,66	-0,052300	
12,397000	0,66	-0,043650	
12,408000	0,66	-0,030200	
12,419000	0,66	-0,040630	
12,430000	0,66	-0,045660	
12,441000	0,66	-0,044020	
12,452000	0,66	-0,041190	
12,463000	0,66	-0,037410	
12,474000	0,66	-0,027270	
12,485000	0,66	-0,026600	
12,496000	0,66	-0,021120	
12,507000	0,66	-0,034670	
12,518000	0,66	-0,026190	
12,529000	0,66	-0,012230	
12,540000	0,66	-0,008790	
12,551000	0,66	-0,017040	
12,562000	0,66	-0,018740	
12,573000	0,66	-0,011600	
12,584000	0,66	-0,014670	
12,595000	0,66	-0,016100	
12,606000	0,66	-0,012750	
12,617000	0,66	-0,030350	
12,628000	0,66	-0,035590	
12,639000	0,66	-0,029960	
12,650000	0,66	-0,030380	
12,661000	0,66	-0,018670	
12,672000	0,66	-0,010810	
12,683000	0,66	-0,000160	
12,694000	0,66	-0,007660	
12,705000	0,66	-0,019280	
12,716000	0,66	-0,017180	
12,727000	0,66	-0,010710	
12,738000	0,66	-0,012610	
12,749000	0,66	-0,006180	
12,760000	0,66	-0,011620	
12,771000	0,66	-0,018300	
12,782000	0,66	-0,025760	
12,793000	0,66	-0,031780	
12,804000	0,66	-0,033540	
12,815000	0,66	-0,031640	
12,826000	0,66	-0,034720	
12,837000	0,66	-0,056870	
12,848000	0,66	-0,063160	
12,859000	0,66	-0,048240	
12,870000	0,66	-0,046780	
12,881000	0,66	-0,048710	
12,892000	0,66	-0,044960	
12,903000	0,66	-0,041430	
12,914000	0,66	-0,036020	
12,925000	0,66	-0,033260	
12,936000	0,66	-0,031890	
12,947000	0,66	-0,033320	
12,958000	0,66	-0,029010	
12,969000	0,66	-0,019120	
12,980000	0,66	-0,020440	
12,991000	0,66	-0,019400	
13,002000	0,66	-0,021610	
13,013000	0,66	-0,014770	
13,024000	0,66	0,003000	
13,035000	0,66	0,018910	
13,046000	0,66	0,019820	
13,057000	0,66	0,009550	
13,068000	0,66	-0,008550	
13,079000	0,66	-0,028970	
13,090000	0,66	-0,045810	
13,101000	0,66	-0,048770	
13,112000	0,66	-0,037220	
13,123000	0,66	-0,037330	
13,134000	0,66	-0,035300	
13,145000	0,66	-0,041780	
13,156000	0,66	-0,032530	
13,167000	0,66	-0,011530	
13,178000	0,66	0,010320	
13,189000	0,66	0,014300	
13,200000	0,66	0,004040	
13,211000	0,66	-0,003610	
13,222000	0,66	-0,023000	
13,233000	0,66	-0,027660	
13,244000	0,66	-0,025280	
13,255000	0,66	-0,019930	
13,266000	0,66	-0,005400	
13,277000	0,66	-0,010520	
13,288000	0,66	-0,010920	
13,299000	0,66	-0,000630	
13,310000	0,66	-0,007910	
13,321000	0,66	0,005070	
13,332000	0,66	0,007770	
13,343000	0,66	0,003790	
13,354000	0,66	-0,004270	
13,365000	0,66	-0,020530	
13,376000	0,66	-0,027210	
13,387000	0,66	-0,004120	
13,398000	0,66	-0,000150	
13,409000	0,66	-0,003830	
13,420000	0,66	-0,015330	
13,431000	0,66	-0,015490	
13,442000	0,66	-0,029070	
13,453000	0,66	-0,029750	
13,464000	0,66	-0,026070	
13,475000	0,66	-0,003550	
13,486000	0,66	-0,000720	
13,497000	0,66	-0,001810	
13,508000	0,66	0,000710	
13,519000	0,66	-0,016320	
13,530000	0,66	-0,027240	
13,541000	0,66	-0,028140	
13,552000	0,66	-0,035690	
13,563000	0,66	-0,036330	
13,574000	0,66	-0,032850	
13,585000	0,66	-0,027960	
13,596000	0,66	-0,023780	
13,607000	0,66	-0,023560	
13,618000	0,66	-0,013780	
13,629000	0,66	-0,006900	
13,640000	0,66	-0,002950	
13,651000	0,66	-0,007050	
13,662000	0,66	-0,019290	
13,673000	0,66	-0,021630	
13,684000	0,66	-0,036650	
13,695000	0,66	-0,037270	
13,706000	0,66	-0,055510	
13,717000	0,66	-0,051790	
13,728000	0,66	-0,050840	
13,739000	0,66	-0,047020	
13,750000	0,66	-0,044680	
13,761000	0,66	-0,038100	
13,772000	0,66	-0,029170	
13,783000	0,66	-0,025800	
13,794000	0,66	-0,030220	
13,805000	0,66	-0,027310	
13,816000	0,66	-0,015620	
13,827000	0,66	-0,016490	
13,838000	0,66	-0,014970	
13,849000	0,66	-0,036360	
13,860000	0,66	-0,033450	
13,871000	0,66	-0,034590	
13,882000	0,66	-0,043600	
13,893000	0,66	-0,042850	
13,904000	0,66	-0,048360	
13,915000	0,66	-0,048510	
13,926000	0,66	-0,036620	
13,937000	0,66	-0,029110	
13,948000	0,66	-0,031800	
13,959000	0,66	-0,027210	
13,970000	0,66	-0,024840	
13,981000	0,66	-0,017090	
13,992000	0,66	-0,008160	
14,003000	0,66	-0,001850	
14,014000	0,66	-0,008610	
14,025000	0,66	0,007540	
14,036000	0,66	-0,006710	
14,047000	0,66	-0,024320	
14,058000	0,66	-0,026970	
14,069000	0,66	-0,035330	
14,080000	0,66	-0,006050	
14,091000	0,66	-0,004990	
14,102000	0,66	-0,012400	
14,113000	0,66	-0,016460	
14,124000	0,66	-0,020170	
14,135000	0,66	-0,014950	
14,146000	0,66	-0,008670	
14,157000	0,66	0,001470	
14,168000	0,66	0,028420	
14,179000	0,66	0,051130	
14,190000	0,66	0,072040	
14,201000	0,66	0,091410	
14,212000	0,66	0,112590	
14,223000	0,66	0,133540	
14,234000	0,66	0,151220	
14,245000	0,66	0,171820	
14,256000	0,66	0,188940	
14,267000	0,66	0,189430	
14,278000	0,66	0,179120	
14,289000	0,66	0,175630	
14,300000	0,66	0,179860	
14,311000	0,66	0,171130	
14,322000	0,66	0,151050	
14,333000	0,66	0,139150	
14,344000	0,66	0,124330	
14,355000	0,66	0,107380	
14,366000	0,66	0,097110	
14,377000	0,66	0,091200	
14,388000	0,66	0,086280	
14,399000	0,66	0,062410	
14,410000	0,66	0,054020	
14,421000	0,66	0,051500	
14,432000	0,66	0,038670	
14,443000	0,66	0,027100	
14,454000	0,66	0,017620	
14,465000	0,66	0,005040	
14,476000	0,66	0,003080	
14,487000	0,66	-0,010340	
14,498000	0,66	-0,017300	
14,509000	0,66	-0,020690	
14,520000	0,66	-0,039150	
14,531000	0,66	-0,038980	
14,542000	0,66	-0,032310	
14,553000	0,66	-0,008420	
14,564000	0,66	0,018620	
14,575000	0,66	0,013370	
14,586000	0,66	0,008980	
14,597000	0,66	0,028030	
14,608000	0,66	0,039130	
14,619000	0,66	0,042840	
14,630000	0,66	0,038310	
14,641000	0,66	0,035500	
14,652000	0,66	0,021140	
14,663000	0,66	0,024840	
14,674000	0,66	0,027320	
14,685000	0,66	0,032880	
14,696000	0,66	0,018820	
14,707000	0,66	0,020140	
14,718000	0,66	0,036310	
14,729000	0,66	0,021510	
14,740000	0,66	0,003280	
14,751000	0,66	-0,007580	
14,762000	0,66	-0,020320	
14,773000	0,66	-0,011600	
14,784000	0,66	0,010490	
14,795000	0,66	0,019430	
14,806000	0,66	0,005540	
14,817000	0,66	0,000900	
14,828000	0,66	0,003280	
14,839000	0,66	-0,003750	
14,850000	0,66	-0,003110	
14,861000	0,66	0,009460	
14,872000	0,66	0,011520	
14,883000	0,66	0,008630	
14,894000	0,66	-0,001160	
14,905000	0,66	-0,019430	
14,916000	0,66	-0,010010	
14,927000	0,66	0,014040	
14,938000	0,66	0,004000	
14,949000	0,66	-0,012560	
14,960000	0,66	-0,015310	
14,971000	0,66	-0,014760	
14,982000	0,66	-0,011550	
14,993000	0,66	-0,013400	
15,004000	0,66	-0,019670	
15,015000	0,66	-0,026730	
15,026000	0,66	-0,025920	
15,037000	0,66	-0,011290	
15,048000	0,66	-0,000260	
15,059000	0,66	-0,000140	
15,070000	0,66	-0,003810	
15,081000	0,66	-0,013910	
15,092000	0,66	-0,008350	
15,103000	0,66	0,006250	
15,114000	0,66	-0,008580	
15,125000	0,66	-0,014900	
15,136000	0,66	-0,007560	
15,147000	0,66	-0,016590	
15,158000	0,66	-0,012630	
15,169000	0,66	-0,015620	
15,180000	0,66	-0,015860	
15,191000	0,66	-0,017640	
15,202000	0,66	-0,027080	
15,213000	0,66	-0,022450	
15,224000	0,66	-0,024190	
15,235000	0,66	-0,025820	
15,246000	0,66	-0,021020	
15,257000	0,66	-0,014270	
15,268000	0,66	-0,027430	
15,279000	0,66	-0,025580	
15,290000	0,66	-0,036320	
15,301000	0,66	-0,026210	
15,312000	0,66	-0,011900	
15,323000	0,66	-0,006410	
15,334000	0,66	-0,012990	
15,345000	0,66	-0,017000	
15,356000	0,66	-0,017230	
15,367000	0,66	-0,007650	
15,378000	0,66	-0,010040	
15,389000	0,66	-0,007050	
15,400000	0,66	-0,001560	
15,411000	0,66	0,000630	
15,422000	0,66	0,004760	
15,433000	0,66	0,001270	
15,444000	0,66	-0,011650	
15,455000	0,66	0,003180	
15,466000	0,66	0,018440	
15,477000	0,66	0,010320	
15,488000	0,66	0,008440	
15,499000	0,66	0,000330	
15,510000	0,66	-0,011100	
15,521000	0,66	-0,010140	
15,532000	0,66	-0,005070	
15,543000	0,66	0,001260	
15,554000	0,66	0,005790	
15,565000	0,66	-0,005990	
15,576000	0,66	-0,008730	
15,587000	0,66	-0,006960	
15,598000	0,66	0,000100	
15,609000	0,66	0,001070	
15,620000	0,66	0,003140	
15,631000	0,66	-0,009630	
15,642000	0,66	-0,011520	
15,653000	0,66	-0,004850	
15,664000	0,66	-0,007380	
15,675000	0,66	-0,013590	
15,686000	0,66	-0,013560	
15,697000	0,66	-0,003830	
15,708000	0,66	-0,001360	
15,719000	0,66	-0,010910	
15,730000	0,66	-0,016900	
15,741000	0,66	-0,005630	
15,752000	0,66	0,018120	
15,763000	0,66	0,038890	
15,774000	0,66	0,056200	
15,785000	0,66	0,093450	
15,796000	0,66	0,112590	
15,807000	0,66	0,111310	
15,818000	0,66	0,117500	
15,829000	0,66	0,118730	
15,840000	0,66	0,117360	
15,851000	0,66	0,110360	
15,862000	0,66	0,092420	
15,873000	0,66	0,078330	
15,884000	0,66	0,069950	
15,895000	0,66	0,045360	
15,906000	0,66	0,038970	
15,917000	0,66	0,022570	
15,928000	0,66	0,021850	
15,939000	0,66	0,034040	
15,950000	0,66	0,037230	
15,961000	0,66	0,012480	
15,972000	0,66	-0,006580	
15,983000	0,66	-0,007020	
15,994000	0,66	0,002130	
16,005000	0,66	0,015060	
16,016000	0,66	0,021430	
16,027000	0,66	0,023550	
16,038000	0,66	0,025310	
16,049000	0,66	0,030380	
16,060000	0,66	0,008300	
16,071000	0,66	-0,013690	
16,082000	0,66	-0,011250	
16,093000	0,66	-0,001120	
16,104000	0,66	0,009630	
16,115000	0,66	0,006590	
16,126000	0,66	-0,010280	
16,137000	0,66	-0,021280	
16,148000	0,66	-0,027830	
16,159000	0,66	-0,006230	
16,170000	0,66	-0,008500	
16,181000	0,66	-0,003380	
16,192000	0,66	-0,016710	
16,203000	0,66	-0,018470	
16,214000	0,66	-0,023050	
16,225000	0,66	-0,046610	
16,236000	0,66	-0,036240	
16,247000	0,66	-0,014910	
16,258000	0,66	-0,003420	
16,269000	0,66	0,003330	
16,280000	0,66	0,012090	
16,291000	0,66	0,014050	
16,302000	0,66	0,009930	
16,313000	0,66	0,010560	
16,324000	0,66	0,001270	
16,335000	0,66	-0,008280	
16,346000	0,66	-0,012230	
16,357000	0,66	-0,013350	
16,368000	0,66	-0,019190	
16,379000	0,66	-0,031000	
16,390000	0,66	-0,034700	
16,401000	0,66	-0,028880	
16,412000	0,66	-0,028800	
16,423000	0,66	-0,026740	
16,434000	0,66	-0,009760	
16,445000	0,66	-0,000220	
16,456000	0,66	-0,000770	
16,467000	0,66	-0,003100	
16,478000	0,66	0,015260	
16,489000	0,66	0,027000	
16,500000	0,66	0,024590	
16,511000	0,66	0,019450	
16,522000	0,66	0,017050	
16,533000	0,66	0,016340	
16,544000	0,66	0,015310	
16,555000	0,66	0,011660	
16,566000	0,66	0,023270	
16,577000	0,66	0,039600	
16,588000	0,66	0,069880	
16,599000	0,66	0,093670	
16,610000	0,66	0,126570	
16,621000	0,66	0,159820	
16,632000	0,66	0,182300	
16,643000	0,66	0,211930	
16,654000	0,66	0,231520	
16,665000	0,66	0,246770	
16,676000	0,66	0,232470	
16,687000	0,66	0,215540	
16,698000	0,66	0,215360	
16,709000	0,66	0,191250	
16,720000	0,66	0,179980	
16,731000	0,66	0,147000	
16,742000	0,66	0,110210	
16,753000	0,66	0,082060	
16,764000	0,66	0,081890	
16,775000	0,66	0,065920	
16,786000	0,66	0,047780	
16,797000	0,66	0,044190	
16,808000	0,66	0,034140	
16,819000	0,66	0,026180	
16,830000	0,66	0,021040	
16,841000	0,66	0,011880	
16,852000	0,66	0,003340	
16,863000	0,66	-0,004730	
16,874000	0,66	0,006270	
16,885000	0,66	0,018530	
16,896000	0,66	0,016740	
16,907000	0,66	0,003340	
16,918000	0,66	-0,002310	
16,929000	0,66	-0,008770	
16,940000	0,66	-0,004660	
16,951000	0,66	-0,003740	
16,962000	0,66	0,010670	
16,973000	0,66	0,013200	
16,984000	0,66	0,024370	
16,995000	0,66	0,042310	
17,006000	0,66	0,047840	
17,017000	0,66	0,038730	
17,028000	0,66	0,029730	
17,039000	0,66	0,015060	
17,050000	0,66	0,011830	
17,061000	0,66	0,013330	
17,072000	0,66	0,009140	
17,083000	0,66	0,007670	
17,094000	0,66	0,006880	
17,105000	0,66	0,014480	
17,116000	0,66	0,010500	
17,127000	0,66	-0,000010	
17,138000	0,66	0,001540	
17,149000	0,66	0,001900	
17,160000	0,66	0,020990	
17,171000	0,66	0,042160	
17,182000	0,66	0,035410	
17,193000	0,66	0,025820	
17,204000	0,66	0,032240	
17,215000	0,66	0,046060	
17,226000	0,66	0,030100	
17,237000	0,66	0,014150	
17,248000	0,66	0,000390	
17,259000	0,66	-0,008360	
17,270000	0,66	-0,007890	
17,281000	0,66	-0,015230	
17,292000	0,66	-0,009300	
17,303000	0,66	-0,006190	
17,314000	0,66	-0,013760	
17,325000	0,66	0,000110	
17,336000	0,66	-0,000900	
17,347000	0,66	-0,004070	
17,358000	0,66	0,002560	
17,369000	0,66	-0,004420	
17,380000	0,66	-0,007670	
17,391000	0,66	-0,028140	
17,402000	0,66	-0,026260	
17,413000	0,66	-0,027650	
17,424000	0,66	-0,024520	
17,435000	0,66	-0,010690	
17,446000	0,66	-0,011630	
17,457000	0,66	-0,009130	
17,468000	0,66	-0,005890	
17,479000	0,66	-0,007200	
17,490000	0,66	-0,020720	
17,501000	0,66	-0,032420	
17,512000	0,66	-0,024340	
17,523000	0,66	-0,017530	
17,534000	0,66	-0,010930	
17,545000	0,66	-0,018630	
17,556000	0,66	-0,015070	
17,567000	0,66	-0,011980	
17,578000	0,66	-0,015660	
17,589000	0,66	-0,025860	
17,600000	0,66	-0,037190	
17,611000	0,66	-0,034390	
17,622000	0,66	-0,035540	
17,633000	0,66	-0,021720	
17,644000	0,66	-0,032290	
17,655000	0,66	-0,042100	
17,666000	0,66	-0,041410	
17,677000	0,66	-0,022940	
17,688000	0,66	-0,004040	
17,699000	0,66	-0,004190	
17,710000	0,66	-0,013430	
17,721000	0,66	-0,025930	
17,732000	0,66	-0,026760	
17,743000	0,66	-0,014290	
17,754000	0,66	-0,006120	
17,765000	0,66	-0,000180	
17,776000	0,66	0,002110	
17,787000	0,66	-0,016790	
17,798000	0,66	-0,030450	
17,809000	0,66	-0,038160	
17,820000	0,66	-0,058410	
17,831000	0,66	-0,058310	
17,842000	0,66	-0,037970	
17,853000	0,66	-0,015100	
17,864000	0,66	-0,015630	
17,875000	0,66	-0,009040	
17,886000	0,66	-0,020560	
17,897000	0,66	-0,036120	
17,908000	0,66	-0,034050	
17,919000	0,66	-0,033620	
17,930000	0,66	-0,031940	
17,941000	0,66	-0,021970	
17,952000	0,66	-0,026740	
17,963000	0,66	-0,042530	
17,974000	0,66	-0,059970	
17,985000	0,66	-0,042600	
17,996000	0,66	-0,025490	
18,007000	0,66	-0,019730	
18,018000	0,66	-0,022540	
18,029000	0,66	-0,016500	
18,040000	0,66	-0,017600	
18,051000	0,66	-0,007350	
18,062000	0,66	-0,008130	
18,073000	0,66	-0,018200	
18,084000	0,66	-0,017590	
18,095000	0,66	-0,005020	
18,106000	0,66	-0,018720	
18,117000	0,66	-0,006860	
18,128000	0,66	-0,023060	
18,139000	0,66	-0,013990	
18,150000	0,66	-0,025570	
18,161000	0,66	-0,019070	
18,172000	0,66	-0,031240	
18,183000	0,66	-0,041480	
18,194000	0,66	-0,049190	
18,205000	0,66	-0,051420	
18,216000	0,66	-0,037820	
18,227000	0,66	-0,022050	
18,238000	0,66	-0,009760	
18,249000	0,66	-0,008390	
18,260000	0,66	-0,005960	
18,271000	0,66	0,001540	
18,282000	0,66	0,006950	
18,293000	0,66	-0,005510	
18,304000	0,66	-0,013210	
18,315000	0,66	0,005100	
18,326000	0,66	0,018610	
18,337000	0,66	0,025830	
18,348000	0,66	0,021270	
18,359000	0,66	0,007400	
18,370000	0,66	-0,001990	
18,381000	0,66	-0,006920	
18,392000	0,66	-0,003540	
18,403000	0,66	-0,007930	
18,414000	0,66	-0,007290	
18,425000	0,66	-0,007440	
18,436000	0,66	-0,003240	
18,447000	0,66	0,014600	
18,458000	0,66	0,020550	
18,469000	0,66	0,012490	
18,480000	0,66	0,003830	
18,491000	0,66	0,009390	
18,502000	0,66	0,019800	
18,513000	0,66	0,012470	
18,524000	0,66	-0,000350	
18,535000	0,66	-0,005760	
18,546000	0,66	0,000910	
18,557000	0,66	0,003410	
18,568000	0,66	-0,000840	
18,579000	0,66	-0,011070	
18,590000	0,66	-0,011730	
18,601000	0,66	-0,002450	
18,612000	0,66	0,001340	
18,623000	0,66	-0,002620	
18,634000	0,66	-0,002800	
18,645000	0,66	-0,008160	
18,656000	0,66	-0,027400	
18,667000	0,66	-0,026750	
18,678000	0,66	-0,012830	
18,689000	0,66	0,000370	
18,700000	0,66	0,000420	
18,711000	0,66	-0,010150	
18,722000	0,66	-0,003620	
18,733000	0,66	-0,005310	
18,744000	0,66	0,007670	
18,755000	0,66	0,003370	
18,766000	0,66	0,011730	
18,777000	0,66	0,001050	
18,788000	0,66	0,007700	
18,799000	0,66	0,010380	
18,810000	0,66	0,017110	
18,821000	0,66	0,014990	
18,832000	0,66	0,008570	
18,843000	0,66	0,016170	
18,854000	0,66	0,011920	
18,865000	0,66	0,009800	
18,876000	0,66	-0,002940	
18,887000	0,66	-0,003870	
18,898000	0,66	-0,011940	
18,909000	0,66	-0,016740	
18,920000	0,66	-0,024530	
18,931000	0,66	-0,048440	
18,942000	0,66	-0,041840	
18,953000	0,66	-0,034220	
18,964000	0,66	-0,025900	
18,975000	0,66	-0,021980	
18,986000	0,66	-0,025820	
18,997000	0,66	-0,022430	
19,008000	0,66	-0,022110	
19,019000	0,66	-0,017840	
19,030000	0,66	-0,029950	
19,041000	0,66	-0,035470	
19,052000	0,66	-0,039380	
19,063000	0,66	-0,021730	
19,074000	0,66	-0,004240	
19,085000	0,66	-0,013300	
19,096000	0,66	-0,016920	
19,107000	0,66	-0,015240	
19,118000	0,66	-0,027740	
19,129000	0,66	-0,023610	
19,140000	0,66	-0,013550	
19,151000	0,66	-0,013750	
19,162000	0,66	-0,001260	
19,173000	0,66	0,013680	
19,184000	0,66	0,018590	
19,195000	0,66	0,012970	
19,206000	0,66	-0,002950	
19,217000	0,66	-0,002410	
19,228000	0,66	0,010050	
19,239000	0,66	0,007470	
19,250000	0,66	-0,003560	
19,261000	0,66	-0,019310	
19,272000	0,66	-0,012790	
19,283000	0,66	-0,004660	
19,294000	0,66	-0,005140	
19,305000	0,66	-0,010450	
19,316000	0,66	-0,012730	
19,327000	0,66	-0,011950	
19,338000	0,66	-0,007560	
19,349000	0,66	-0,011650	
19,360000	0,66	-0,025720	
19,371000	0,66	-0,028400	
19,382000	0,66	-0,033710	
19,393000	0,66	-0,043400	
19,404000	0,66	-0,039810	
19,415000	0,66	-0,013650	
19,426000	0,66	-0,001060	
19,437000	0,66	-0,008630	
19,448000	0,66	-0,011280	
19,459000	0,66	-0,019010	
19,470000	0,66	-0,031690	
19,481000	0,66	-0,027020	
19,492000	0,66	-0,046470	
19,503000	0,66	-0,045930	
19,514000	0,66	-0,035650	
19,525000	0,66	-0,032260	
19,536000	0,66	-0,041640	
19,547000	0,66	-0,056540	
19,558000	0,66	-0,041420	
19,569000	0,66	-0,014690	
19,580000	0,66	-0,009460	
19,591000	0,66	-0,009880	
19,602000	0,66	-0,008610	
19,613000	0,66	-0,018780	
19,624000	0,66	-0,019530	
19,635000	0,66	-0,015310	
19,646000	0,66	-0,003540	
19,657000	0,66	0,008890	
19,668000	0,66	-0,004760	
19,679000	0,66	0,007810	
19,690000	0,66	0,003040	
19,701000	0,66	0,001040	
19,712000	0,66	0,004120	
19,723000	0,66	-0,006090	
19,734000	0,66	-0,015490	
19,745000	0,66	-0,004250	
19,756000	0,66	0,004490	
19,767000	0,66	0,002510	
19,778000	0,66	-0,001890	
19,789000	0,66	-0,011930	
19,800000	0,66	-0,016620	
19,811000	0,66	-0,010300	
19,822000	0,66	-0,003770	
19,833000	0,66	-0,004300	
19,844000	0,66	-0,016090	
19,855000	0,66	-0,018170	
19,866000	0,66	-0,010210	
19,877000	0,66	-0,013030	
19,888000	0,66	-0,009000	
19,899000	0,66	-0,002710	
19,910000	0,66	-0,005910	
19,921000	0,66	-0,002950	
19,932000	0,66	-0,001190	
19,943000	0,66	-0,009500	
19,954000	0,66	-0,010150	
19,965000	0,66	0,000020	
19,976000	0,66	0,007090	
19,987000	0,66	0,001260	
19,998000	0,66	-0,016370	
20,009000	0,66	-0,009550	
20,020000	0,66	-0,001900	
20,031000	0,66	-0,001260	
20,042000	0,66	-0,002180	
20,053000	0,66	0,009330	
20,064000	0,66	0,020050	
20,075000	0,66	0,015400	
20,086000	0,66	0,004080	
20,097000	0,66	0,001700	
20,108000	0,66	0,015850	
20,119000	0,66	0,014970	
20,130000	0,66	0,001160	
20,141000	0,66	-0,008660	
20,152000	0,66	-0,005730	
20,163000	0,66	-0,014770	
20,174000	0,66	-0,004720	
20,185000	0,66	-0,003010	
20,196000	0,66	-0,001030	
20,207000	0,66	0,014230	
20,218000	0,66	0,026910	
20,229000	0,66	0,027510	
20,240000	0,66	0,024520	
20,251000	0,66	0,024460	
20,262000	0,66	0,032800	
20,273000	0,66	0,035360	
20,284000	0,66	0,021560	
20,295000	0,66	0,023350	
20,306000	0,66	0,029300	
20,317000	0,66	0,020740	
20,328000	0,66	0,013500	
20,339000	0,66	0,017030	
20,350000	0,66	0,021180	
20,361000	0,66	0,028020	
20,372000	0,66	0,040430	
20,383000	0,66	0,031450	
20,394000	0,66	0,009330	
20,405000	0,66	-0,007980	
20,416000	0,66	-0,015270	
20,427000	0,66	-0,015790	
20,438000	0,66	-0,014920	
20,449000	0,66	0,001930	
20,460000	0,66	0,014550	
20,471000	0,66	0,016090	
20,482000	0,66	0,022110	
20,493000	0,66	0,022960	
20,504000	0,66	0,016030	
20,515000	0,66	0,009520	
20,526000	0,66	0,010070	
20,537000	0,66	0,010620	
20,548000	0,66	0,008130	
20,559000	0,66	0,005210	
20,570000	0,66	0,008330	
20,581000	0,66	0,011250	
20,592000	0,66	0,008030	
20,603000	0,66	0,009880	
20,614000	0,66	0,007360	
20,625000	0,66	-0,004040	
20,636000	0,66	-0,012990	
20,647000	0,66	-0,004580	
20,658000	0,66	0,000970	
20,669000	0,66	0,011750	
20,680000	0,66	0,014970	
20,691000	0,66	0,019060	
20,702000	0,66	0,020760	
20,713000	0,66	0,021680	
20,724000	0,66	0,023060	
20,735000	0,66	0,016650	
20,746000	0,66	0,014150	
20,757000	0,66	0,017940	
20,768000	0,66	0,012300	
20,779000	0,66	0,007580	
20,790000	0,66	0,006010	
20,801000	0,66	0,011800	
20,812000	0,66	0,025450	
20,823000	0,66	0,036430	
20,834000	0,66	0,041530	
20,845000	0,66	0,017980	
20,856000	0,66	-0,007410	
20,867000	0,66	-0,010250	
20,878000	0,66	-0,000180	
20,889000	0,66	0,000720	
20,900000	0,66	-0,008960	
20,911000	0,66	-0,016260	
20,922000	0,66	-0,008440	
20,933000	0,66	0,006010	
20,944000	0,66	-0,000470	
20,955000	0,66	-0,003100	
20,966000	0,66	0,017030	
20,977000	0,66	0,019670	
20,988000	0,66	0,026050	
20,999000	0,66	0,014690	
21,010000	0,66	0,025990	
21,021000	0,66	0,031440	
21,032000	0,66	0,022230	
21,043000	0,66	0,009970	
21,054000	0,66	0,004030	
21,065000	0,66	0,023970	
21,076000	0,66	0,033910	
21,087000	0,66	0,039970	
21,098000	0,66	0,038200	
21,109000	0,66	0,036730	
21,120000	0,66	0,018040	
21,131000	0,66	0,006190	
21,142000	0,66	0,016020	
21,153000	0,66	0,025510	
21,164000	0,66	0,040070	
21,175000	0,66	0,059190	
21,186000	0,66	0,081780	
21,197000	0,66	0,086540	
21,208000	0,66	0,090890	
21,219000	0,66	0,114730	
21,230000	0,66	0,116890	
21,241000	0,66	0,101850	
21,252000	0,66	0,107180	
21,263000	0,66	0,107980	
21,274000	0,66	0,098020	
21,285000	0,66	0,091230	
21,296000	0,66	0,073950	
21,307000	0,66	0,067320	
21,318000	0,66	0,066530	
21,329000	0,66	0,061630	
21,340000	0,66	0,051210	
21,351000	0,66	0,047740	
21,362000	0,66	0,045780	
21,373000	0,66	0,022110	
21,384000	0,66	0,026210	
21,395000	0,66	0,030670	
21,406000	0,66	0,009950	
21,417000	0,66	0,003010	
21,428000	0,66	0,012310	
21,439000	0,66	0,001710	
21,450000	0,66	-0,005730	
21,461000	0,66	-0,005920	
21,472000	0,66	-0,010820	
21,483000	0,66	-0,014840	
21,494000	0,66	-0,010840	
21,505000	0,66	-0,020860	
21,516000	0,66	-0,017360	
21,527000	0,66	-0,008380	
21,538000	0,66	0,000360	
21,549000	0,66	0,014780	
21,560000	0,66	0,008560	
21,571000	0,66	0,001280	
21,582000	0,66	0,015700	
21,593000	0,66	0,010560	
21,604000	0,66	0,015520	
21,615000	0,66	-0,001210	
21,626000	0,66	-0,005510	
21,637000	0,66	-0,002350	
21,648000	0,66	-0,007320	
21,659000	0,66	-0,016940	
21,670000	0,66	-0,023790	
21,681000	0,66	-0,005260	
21,692000	0,66	0,010240	
21,703000	0,66	-0,000150	
21,714000	0,66	-0,005960	
21,725000	0,66	0,007780	
21,736000	0,66	0,015630	
21,747000	0,66	0,002960	
21,758000	0,66	0,005130	
21,769000	0,66	0,012250	
21,780000	0,66	0,015390	
21,791000	0,66	0,010630	
21,802000	0,66	0,018470	
21,813000	0,66	0,014140	
21,824000	0,66	0,016110	
21,835000	0,66	0,003240	
21,846000	0,66	-0,018760	
21,857000	0,66	-0,015960	
21,868000	0,66	-0,006840	
21,879000	0,66	0,004180	
21,890000	0,66	0,016260	
21,901000	0,66	0,006140	
21,912000	0,66	-0,009610	
21,923000	0,66	0,005320	
21,934000	0,66	0,022170	
21,945000	0,66	0,015070	
21,956000	0,66	0,011480	
21,967000	0,66	0,016550	
21,978000	0,66	0,014980	
21,989000	0,66	0,007050	
22,000000	0,66	-0,003340	
22,011000	0,66	-0,008000	
22,022000	0,66	0,007000	
22,033000	0,66	0,014700	
22,044000	0,66	0,002290	
22,055000	0,66	0,001850	
22,066000	0,66	0,013390	
22,077000	0,66	0,025760	
22,088000	0,66	0,020770	
22,099000	0,66	0,012190	
22,110000	0,66	0,018980	
22,121000	0,66	0,006910	
22,132000	0,66	0,019530	
22,143000	0,66	0,025650	
22,154000	0,66	0,017310	
22,165000	0,66	0,015930	
22,176000	0,66	0,031170	
22,187000	0,66	0,005880	
22,198000	0,66	0,008160	
22,209000	0,66	-0,007390	
22,220000	0,66	-0,006170	
22,231000	0,66	-0,019620	
22,242000	0,66	-0,014080	
22,253000	0,66	-0,008710	
22,264000	0,66	-0,010280	
22,275000	0,66	-0,013810	
22,286000	0,66	-0,020550	
22,297000	0,66	-0,024500	
22,308000	0,66	-0,006330	
22,319000	0,66	0,005180	
22,330000	0,66	0,006290	
22,341000	0,66	0,002160	
22,352000	0,66	0,005760	
22,363000	0,66	-0,001640	
22,374000	0,66	-0,018390	
22,385000	0,66	-0,015150	
22,396000	0,66	-0,007100	
22,407000	0,66	-0,007710	
22,418000	0,66	-0,003250	
22,429000	0,66	-0,007660	
22,440000	0,66	-0,010940	
22,451000	0,66	0,013510	
22,462000	0,66	0,027770	
22,473000	0,66	0,021140	
22,484000	0,66	0,021900	
22,495000	0,66	0,021870	
22,506000	0,66	0,015330	
22,517000	0,66	0,020360	
22,528000	0,66	0,012940	
22,539000	0,66	0,008210	
22,550000	0,66	0,007550	
22,561000	0,66	0,002460	
22,572000	0,66	0,007310	
22,583000	0,66	0,009250	
22,594000	0,66	0,016500	
22,605000	0,66	0,014240	
22,616000	0,66	-0,015630	
22,627000	0,66	-0,024720	
22,638000	0,66	-0,021660	
22,649000	0,66	-0,018780	
22,660000	0,66	-0,010060	
22,671000	0,66	-0,013650	
22,682000	0,66	-0,017090	
22,693000	0,66	-0,022370	
22,704000	0,66	-0,030310	
22,715000	0,66	-0,044820	
22,726000	0,66	-0,042100	
22,737000	0,66	-0,028960	
22,748000	0,66	-0,031530	
22,759000	0,66	-0,031910	
22,770000	0,66	-0,016280	
22,781000	0,66	0,003960	
22,792000	0,66	0,028960	
22,803000	0,66	0,026130	
22,814000	0,66	0,030350	
22,825000	0,66	0,046220	
22,836000	0,66	0,055460	
22,847000	0,66	0,069680	
22,858000	0,66	0,076940	
22,869000	0,66	0,094600	
22,880000	0,66	0,092000	
22,891000	0,66	0,093380	
22,902000	0,66	0,093580	
22,913000	0,66	0,090160	
22,924000	0,66	0,087460	
22,935000	0,66	0,087310	
22,946000	0,66	0,084740	
22,957000	0,66	0,084020	
22,968000	0,66	0,080140	
22,979000	0,66	0,073280	
22,990000	0,66	0,080840	
23,001000	0,66	0,070220	
23,012000	0,66	0,061670	
23,023000	0,66	0,048190	
23,034000	0,66	0,040370	
23,045000	0,66	0,038610	
23,056000	0,66	0,009700	
23,067000	0,66	-0,012750	
23,078000	0,66	-0,022020	
23,089000	0,66	-0,014910	
23,100000	0,66	0,005660	
23,111000	0,66	-0,010000	
23,122000	0,66	-0,018590	
23,133000	0,66	-0,023760	
23,144000	0,66	-0,012340	
23,155000	0,66	0,002730	
23,166000	0,66	-0,008260	
23,177000	0,66	-0,018130	
23,188000	0,66	-0,025570	
23,199000	0,66	-0,012270	
23,210000	0,66	-0,002750	
23,221000	0,66	-0,002060	
23,232000	0,66	-0,007300	
23,243000	0,66	-0,010090	
23,254000	0,66	-0,021560	
23,265000	0,66	-0,027680	
23,276000	0,66	-0,019460	
23,287000	0,66	-0,014850	
23,298000	0,66	-0,021980	
23,309000	0,66	-0,024970	
23,320000	0,66	-0,019510	
23,331000	0,66	-0,014050	
23,342000	0,66	-0,002060	
23,353000	0,66	0,010170	
23,364000	0,66	0,011320	
23,375000	0,66	0,003690	
23,386000	0,66	-0,003720	
23,397000	0,66	-0,002580	
23,408000	0,66	-0,003220	
23,419000	0,66	-0,004690	
23,430000	0,66	-0,000470	
23,441000	0,66	0,012750	
23,452000	0,66	0,019440	
23,463000	0,66	0,020300	
23,474000	0,66	0,014510	
23,485000	0,66	0,023330	
23,496000	0,66	0,017900	
23,507000	0,66	0,004930	
23,518000	0,66	0,000730	
23,529000	0,66	0,008070	
23,540000	0,66	0,021700	
23,551000	0,66	0,020910	
23,562000	0,66	0,026920	
23,573000	0,66	0,025840	
23,584000	0,66	0,024570	
23,595000	0,66	0,017600	
23,606000	0,66	0,006740	
23,617000	0,66	0,011100	
23,628000	0,66	0,022420	
23,639000	0,66	0,036980	
23,650000	0,66	0,043730	
23,661000	0,66	0,013050	
23,672000	0,66	0,020450	
23,683000	0,66	0,018600	
23,694000	0,66	0,022990	
23,705000	0,66	0,033780	
23,716000	0,66	0,047140	
23,727000	0,66	0,050860	
23,738000	0,66	0,055800	
23,749000	0,66	0,066480	
23,760000	0,66	0,068570	
23,771000	0,66	0,071080	
23,782000	0,66	0,074210	
23,793000	0,66	0,086660	
23,804000	0,66	0,109380	
23,815000	0,66	0,122370	
23,826000	0,66	0,133880	
23,837000	0,66	0,154580	
23,848000	0,66	0,173790	
23,859000	0,66	0,198640	
23,870000	0,66	0,235170	
23,881000	0,66	0,232100	
23,892000	0,66	0,241980	
23,903000	0,66	0,253830	
23,914000	0,66	0,258610	
23,925000	0,66	0,290500	
23,936000	0,66	0,331390	
23,947000	0,66	0,373990	
23,958000	0,66	0,411260	
23,969000	0,66	0,443890	
23,980000	0,66	0,474080	
23,991000	0,66	0,506920	
24,002000	0,66	0,548770	
24,013000	0,66	0,586670	
24,024000	0,66	0,588600	
24,035000	0,66	0,576860	
24,046000	0,66	0,570650	
24,057000	0,66	0,553470	
24,068000	0,66	0,540790	
24,079000	0,66	0,530660	
24,090000	0,66	0,531300	
24,101000	0,66	0,540070	
24,112000	0,66	0,538410	
24,123000	0,66	0,547140	
24,134000	0,66	0,575900	
24,145000	0,66	0,627370	
24,156000	0,66	0,714990	
24,167000	0,66	0,895450	
24,178000	0,66	1,296340	
24,189000	0,66	2,076240	
24,200000	0,66	3,426550	
24,211000	0,66	5,612900	
24,222000	0,66	9,052970	
24,233000	0,66	14,328620	
24,244000	0,66	22,109120	
24,255000	0,66	32,305490	
24,266000	0,66	43,561410	
24,277000	0,66	54,299790	
24,288000	0,66	63,168300	
24,299000	0,66	69,561460	
24,310000	0,66	73,566040	
24,321000	0,66	75,439670	
24,332000	0,66	75,560520	
24,343000	0,66	74,310900	
24,354000	0,66	72,064800	
24,365000	0,66	69,088930	
24,376000	0,66	65,617860	
24,387000	0,66	61,767710	
24,398000	0,66	57,697770	
24,409000	0,66	53,535120	
24,420000	0,66	49,373530	
24,431000	0,66	45,321570	
24,442000	0,66	41,447110	
24,453000	0,66	37,733630	
24,464000	0,66	34,236390	
24,475000	0,66	30,997130	
24,486000	0,66	28,041880	
24,497000	0,66	25,386940	
24,508000	0,66	23,011760	
24,519000	0,66	20,901610	
24,530000	0,66	19,035960	
24,541000	0,66	17,406850	
24,552000	0,66	15,956350	
24,563000	0,66	14,628410	
24,574000	0,66	13,419300	
24,585000	0,66	12,261440	
24,596000	0,66	11,162120	
24,607000	0,66	10,113710	
24,618000	0,66	9,137000	
24,629000	0,66	8,208230	
24,640000	0,66	7,343630	
24,651000	0,66	6,548090	
24,662000	0,66	5,844410	
24,673000	0,66	5,215710	
24,684000	0,66	4,640560	
24,695000	0,66	4,128910	
24,706000	0,66	3,683650	
24,717000	0,66	3,299460	
24,728000	0,66	2,977230	
24,739000	0,66	2,706960	
24,750000	0,66	2,478650	
24,761000	0,66	2,288590	
24,772000	0,66	2,124960	
24,783000	0,66	1,972970	
24,794000	0,66	1,842360	
24,805000	0,66	1,720590	
24,816000	0,66	1,623150	
24,827000	0,66	1,547370	
24,838000	0,66	1,457660	
24,849000	0,66	1,375810	
24,860000	0,66	1,295590	
24,871000	0,66	1,221010	
24,882000	0,66	1,157340	
24,893000	0,66	1,081840	
24,904000	0,66	0,991520	
24,915000	0,66	0,904810	
24,926000	0,66	0,833860	
24,937000	0,66	0,764130	
24,948000	0,66	0,710710	
24,959000	0,66	0,654260	
24,970000	0,66	0,607720	
24,981000	0,66	0,569240	
24,992000	0,66	0,532290	
25,003000	0,66	0,510390	
25,014000	0,66	0,510360	
25,025000	0,66	0,494450	
25,036000	0,66	0,483940	
25,047000	0,66	0,465340	
25,058000	0,66	0,447400	
25,069000	0,66	0,419650	
25,080000	0,66	0,399820	
25,091000	0,66	0,383840	
25,102000	0,66	0,362330	
25,113000	0,66	0,355780	
25,124000	0,66	0,352320	
25,135000	0,66	0,326420	
25,146000	0,66	0,317730	
25,157000	0,66	0,300620	
25,168000	0,66	0,290120	
25,179000	0,66	0,284240	
25,190000	0,66	0,284530	
25,201000	0,66	0,277640	
25,212000	0,66	0,276140	
25,223000	0,66	0,283740	
25,234000	0,66	0,292910	
25,245000	0,66	0,296300	
25,256000	0,66	0,298400	
25,267000	0,66	0,305470	
25,278000	0,66	0,322430	
25,289000	0,66	0,312730	
25,300000	0,66	0,297010	
25,311000	0,66	0,304440	
25,322000	0,66	0,305710	
25,333000	0,66	0,312680	
25,344000	0,66	0,307890	
25,355000	0,66	0,300940	
25,366000	0,66	0,314020	
25,377000	0,66	0,327400	
25,388000	0,66	0,316950	
25,399000	0,66	0,304020	
25,410000	0,66	0,301000	
25,421000	0,66	0,297850	
25,432000	0,66	0,292870	
25,443000	0,66	0,288930	
25,454000	0,66	0,291920	
25,465000	0,66	0,283590	
25,476000	0,66	0,274900	
25,487000	0,66	0,271720	
25,498000	0,66	0,252920	
25,509000	0,66	0,232830	
25,520000	0,66	0,201040	
25,531000	0,66	0,196580	
25,542000	0,66	0,193500	
25,553000	0,66	0,178420	
25,564000	0,66	0,160140	
25,575000	0,66	0,148780	
25,586000	0,66	0,129580	
25,597000	0,66	0,122460	
25,608000	0,66	0,113070	
25,619000	0,66	0,119670	
25,630000	0,66	0,105100	
25,641000	0,66	0,105530	
25,652000	0,66	0,110960	
25,663000	0,66	0,096580	
25,674000	0,66	0,095840	
25,685000	0,66	0,086870	
25,696000	0,66	0,065190	
25,707000	0,66	0,047760	
25,718000	0,66	0,051770	
25,729000	0,66	0,054500	
25,740000	0,66	0,054790	
25,751000	0,66	0,062270	
25,762000	0,66	0,044480	
25,773000	0,66	0,042500	
25,784000	0,66	0,030930	
25,795000	0,66	0,036670	
25,806000	0,66	0,045580	
25,817000	0,66	0,054760	
25,828000	0,66	0,045000	
25,839000	0,66	0,022330	
25,850000	0,66	0,031610	
25,861000	0,66	0,024240	
25,872000	0,66	0,026240	
25,883000	0,66	0,040260	
25,894000	0,66	0,031140	
25,905000	0,66	0,027110	
25,916000	0,66	0,037450	
25,927000	0,66	0,041830	
25,938000	0,66	0,039650	
25,949000	0,66	0,026370	
25,960000	0,66	0,012880	
25,971000	0,66	0,015500	
25,982000	0,66	0,022300	
25,993000	0,66	0,022460	
26,004000	0,66	0,014070	
26,015000	0,66	0,013260	
26,026000	0,66	0,028200	
26,037000	0,66	0,026550	
26,048000	0,66	0,015150	
26,059000	0,66	0,015240	
26,070000	0,66	0,015620	
26,081000	0,66	0,020180	
26,092000	0,66	0,035220	
26,103000	0,66	0,044130	
26,114000	0,66	0,039990	
26,125000	0,66	0,027040	
26,136000	0,66	0,009050	
26,147000	0,66	0,002740	
26,158000	0,66	0,015280	
26,169000	0,66	0,020280	
26,180000	0,66	0,014200	
26,191000	0,66	0,020810	
26,202000	0,66	0,023050	
26,213000	0,66	0,023370	
26,224000	0,66	0,035130	
26,235000	0,66	0,031110	
26,246000	0,66	0,028730	
26,257000	0,66	0,025760	
26,268000	0,66	0,032500	
26,279000	0,66	0,030010	
26,290000	0,66	0,026200	
26,301000	0,66	0,022790	
26,312000	0,66	0,021980	
26,323000	0,66	0,034110	
26,334000	0,66	0,029110	
26,345000	0,66	0,023390	
26,356000	0,66	0,019590	
26,367000	0,66	0,011080	
26,378000	0,66	0,011800	
26,389000	0,66	0,018430	
26,400000	0,66	0,027000	
26,411000	0,66	0,013330	
26,422000	0,66	-0,010760	
26,433000	0,66	-0,016390	
26,444000	0,66	-0,010870	
26,455000	0,66	-0,020160	
26,466000	0,66	-0,024950	
26,477000	0,66	-0,020280	
26,488000	0,66	0,012000	
26,499000	0,66	0,018820	
26,510000	0,66	0,020340	
26,521000	0,66	-0,003910	
26,532000	0,66	-0,018610	
26,543000	0,66	-0,021150	
26,554000	0,66	-0,012190	
26,565000	0,66	-0,013340	
26,576000	0,66	-0,024600	
26,587000	0,66	-0,005210	
26,598000	0,66	0,002880	
26,609000	0,66	0,008580	
26,620000	0,66	0,023140	
26,631000	0,66	0,003410	
26,642000	0,66	0,006470	
26,653000	0,66	0,006980	
26,664000	0,66	0,016090	
26,675000	0,66	0,003530	
26,686000	0,66	-0,002920	
26,697000	0,66	-0,006670	
26,708000	0,66	-0,013840	
26,719000	0,66	-0,004880	
26,730000	0,66	-0,011080	
26,741000	0,66	-0,013590	
26,752000	0,66	-0,013140	
26,763000	0,66	-0,005530	
26,774000	0,66	-0,004290	
26,785000	0,66	-0,006040	
26,796000	0,66	-0,001970	
26,807000	0,66	-0,006140	
26,818000	0,66	-0,005090	
26,829000	0,66	-0,010550	
26,840000	0,66	-0,023940	
26,851000	0,66	-0,030260	
26,862000	0,66	-0,031190	
26,873000	0,66	-0,016440	
26,884000	0,66	-0,006560	
26,895000	0,66	-0,005040	
26,906000	0,66	0,001840	
26,917000	0,66	0,003450	
26,928000	0,66	-0,003190	
26,939000	0,66	0,004100	
26,950000	0,66	-0,001730	
26,961000	0,66	-0,000570	
26,972000	0,66	0,002230	
26,983000	0,66	0,006850	
26,994000	0,66	0,014570	
27,005000	0,66	0,006620	
27,016000	0,66	-0,003240	
27,027000	0,66	-0,011510	
27,038000	0,66	-0,012710	
27,049000	0,66	-0,011640	
27,060000	0,66	-0,012420	
27,071000	0,66	-0,003080	
27,082000	0,66	-0,009840	
27,093000	0,66	-0,002950	
27,104000	0,66	-0,004700	
27,115000	0,66	-0,025540	
27,126000	0,66	-0,016680	
27,137000	0,66	-0,032820	
27,148000	0,66	-0,025030	
27,159000	0,66	-0,014980	
27,170000	0,66	-0,000450	
27,181000	0,66	0,005730	
27,192000	0,66	0,013450	
27,203000	0,66	0,002890	
27,214000	0,66	0,001290	
27,225000	0,66	-0,008420	
27,236000	0,66	-0,015000	
27,247000	0,66	-0,019300	
27,258000	0,66	-0,035760	
27,269000	0,66	-0,029630	
27,280000	0,66	-0,014130	
27,291000	0,66	-0,002970	
27,302000	0,66	-0,019420	
27,313000	0,66	-0,025110	
27,324000	0,66	-0,010730	
27,335000	0,66	-0,005430	
27,346000	0,66	-0,033590	
27,357000	0,66	-0,042270	
27,368000	0,66	-0,032350	
27,379000	0,66	-0,015520	
27,390000	0,66	-0,009120	
27,401000	0,66	-0,013890	
27,412000	0,66	-0,020750	
27,423000	0,66	-0,006480	
27,434000	0,66	-0,001830	
27,445000	0,66	-0,012840	
27,456000	0,66	-0,004940	
27,467000	0,66	-0,001440	
27,478000	0,66	-0,009040	
27,489000	0,66	-0,004410	
27,500000	0,66	-0,002370	
27,511000	0,66	-0,015200	
27,522000	0,66	-0,034020	
27,533000	0,66	-0,033690	
27,544000	0,66	-0,018480	
27,555000	0,66	-0,021080	
27,566000	0,66	-0,030120	
27,577000	0,66	-0,029060	
27,588000	0,66	-0,017490	
27,599000	0,66	-0,026160	
27,610000	0,66	-0,036940	
27,621000	0,66	-0,048900	
27,632000	0,66	-0,057980	
27,643000	0,66	-0,027650	
27,654000	0,66	-0,028600	
27,665000	0,66	-0,035620	
27,676000	0,66	-0,025210	
27,687000	0,66	-0,031820	
27,698000	0,66	-0,022970	
27,709000	0,66	-0,020110	
27,720000	0,66	-0,037990	
27,731000	0,66	-0,039560	
27,742000	0,66	-0,030160	
27,753000	0,66	-0,014700	
27,764000	0,66	-0,013440	
27,775000	0,66	-0,026100	
27,786000	0,66	-0,026870	
27,797000	0,66	-0,029190	
27,808000	0,66	-0,024590	
27,819000	0,66	-0,026780	
27,830000	0,66	-0,032210	
27,841000	0,66	-0,036450	
27,852000	0,66	-0,030320	
27,863000	0,66	-0,015590	
27,874000	0,66	-0,016330	
27,885000	0,66	-0,022720	
27,896000	0,66	-0,032120	
27,907000	0,66	-0,032680	
27,918000	0,66	-0,027310	
27,929000	0,66	-0,021060	
27,940000	0,66	-0,028990	
27,951000	0,66	-0,016240	
27,962000	0,66	-0,005430	
27,973000	0,66	-0,009060	
27,984000	0,66	-0,026720	
27,995000	0,66	-0,039150	
28,006000	0,66	-0,016710	
28,017000	0,66	-0,012500	
28,028000	0,66	-0,025380	
28,039000	0,66	-0,047900	
28,050000	0,66	-0,043160	
28,061000	0,66	-0,034850	
28,072000	0,66	-0,030830	
28,083000	0,66	-0,039220	
28,094000	0,66	-0,044120	
28,105000	0,66	-0,042050	
28,116000	0,66	-0,046790	
28,127000	0,66	-0,047960	
28,138000	0,66	-0,045680	
28,149000	0,66	-0,050590	
28,160000	0,66	-0,043660	
28,171000	0,66	-0,028590	
28,182000	0,66	-0,025620	
28,193000	0,66	-0,034340	
28,204000	0,66	-0,031520	
28,215000	0,66	-0,026280	
28,226000	0,66	-0,019960	
28,237000	0,66	-0,005190	
28,248000	0,66	-0,005480	
28,259000	0,66	-0,006720	
28,270000	0,66	-0,004870	
28,281000	0,66	-0,006460	
28,292000	0,66	-0,012440	
28,303000	0,66	-0,031120	
28,314000	0,66	-0,041480	
28,325000	0,66	-0,036970	
28,336000	0,66	-0,039550	
28,347000	0,66	-0,032900	
28,358000	0,66	-0,029980	
28,369000	0,66	-0,029130	
28,380000	0,66	-0,024500	
28,391000	0,66	-0,020440	
28,402000	0,66	0,000220	
28,413000	0,66	0,001340	
28,424000	0,66	0,007020	
28,435000	0,66	-0,003030	
28,446000	0,66	-0,006950	
28,457000	0,66	-0,022180	
28,468000	0,66	-0,025810	
28,479000	0,66	-0,019160	
28,490000	0,66	-0,021980	
28,501000	0,66	-0,023160	
28,512000	0,66	-0,017830	
28,523000	0,66	0,009330	
28,534000	0,66	0,033440	
28,545000	0,66	0,039440	
28,556000	0,66	0,050790	
28,567000	0,66	0,048970	
28,578000	0,66	0,051400	
28,589000	0,66	0,066960	
28,600000	0,66	0,062890	
28,611000	0,66	0,049230	
28,622000	0,66	0,052710	
28,633000	0,66	0,048210	
28,644000	0,66	0,046660	
28,655000	0,66	0,057540	
28,666000	0,66	0,053090	
28,677000	0,66	0,041610	
28,688000	0,66	0,052620	
28,699000	0,66	0,058800	
28,710000	0,66	0,055240	
28,721000	0,66	0,047410	
28,732000	0,66	0,052020	
28,743000	0,66	0,041900	
28,754000	0,66	0,031660	
28,765000	0,66	0,032230	
28,776000	0,66	0,034310	
28,787000	0,66	0,030890	
28,798000	0,66	0,028630	
28,809000	0,66	0,044550	
28,820000	0,66	0,062320	
28,831000	0,66	0,065420	
28,842000	0,66	0,068220	
28,853000	0,66	0,067670	
28,864000	0,66	0,075890	
28,875000	0,66	0,074720	
28,886000	0,66	0,064190	
28,897000	0,66	0,060880	
28,908000	0,66	0,047290	
28,919000	0,66	0,045740	
28,930000	0,66	0,037170	
28,941000	0,66	-0,001490	
28,952000	0,66	-0,020770	
28,963000	0,66	-0,010450	
28,974000	0,66	-0,000620	
28,985000	0,66	-0,010940	
28,996000	0,66	-0,014280	
29,007000	0,66	-0,013860	
29,018000	0,66	-0,012200	
29,029000	0,66	0,002930	
29,040000	0,66	-0,005750	
29,051000	0,66	-0,011030	
29,062000	0,66	-0,008730	
29,073000	0,66	-0,013510	
29,084000	0,66	-0,012750	
29,095000	0,66	-0,016410	
29,106000	0,66	-0,015560	
29,117000	0,66	-0,015490	
29,128000	0,66	-0,020520	
29,139000	0,66	-0,030740	
29,150000	0,66	-0,022370	
29,161000	0,66	-0,015010	
29,172000	0,66	-0,028480	
29,183000	0,66	-0,039060	
29,194000	0,66	-0,035730	
29,205000	0,66	-0,032310	
29,216000	0,66	-0,021870	
29,227000	0,66	-0,023750	
29,238000	0,66	-0,026460	
29,249000	0,66	-0,037650	
29,260000	0,66	-0,026080	
29,271000	0,66	-0,004600	
29,282000	0,66	-0,006570	
29,293000	0,66	-0,019240	
29,304000	0,66	-0,006520	
29,315000	0,66	0,011860	
29,326000	0,66	0,013020	
29,337000	0,66	0,000420	
29,348000	0,66	-0,004130	
29,359000	0,66	-0,013340	
29,370000	0,66	-0,017700	
29,381000	0,66	-0,021960	
29,392000	0,66	-0,028080	
29,403000	0,66	-0,031150	
29,414000	0,66	-0,035030	
29,425000	0,66	-0,029590	
29,436000	0,66	-0,024220	
29,447000	0,66	-0,022820	
29,458000	0,66	-0,010960	
29,469000	0,66	-0,014920	
29,480000	0,66	-0,020320	
29,491000	0,66	-0,027860	
29,502000	0,66	-0,034530	
29,513000	0,66	-0,031030	
29,524000	0,66	-0,014250	
29,535000	0,66	-0,022180	
29,546000	0,66	-0,031760	
29,557000	0,66	-0,032650	
29,568000	0,66	-0,037990	
29,579000	0,66	-0,042700	
29,590000	0,66	-0,047600	
29,601000	0,66	-0,045360	
29,612000	0,66	-0,027980	
29,623000	0,66	-0,017610	
29,634000	0,66	-0,031260	
29,645000	0,66	-0,030850	
29,656000	0,66	-0,011840	
29,667000	0,66	-0,008780	
29,678000	0,66	-0,010930	
29,689000	0,66	-0,015960	
29,700000	0,66	-0,029120	
29,711000	0,66	-0,035100	
29,722000	0,66	-0,039670	
29,733000	0,66	-0,052040	
29,744000	0,66	-0,065440	
29,755000	0,66	-0,062380	
29,766000	0,66	-0,050870	
29,777000	0,66	-0,043630	
29,788000	0,66	-0,041430	
29,799000	0,66	-0,042620	
29,810000	0,66	-0,021120	
29,821000	0,66	-0,016580	
29,832000	0,66	-0,030320	
29,843000	0,66	-0,043510	
29,854000	0,66	-0,041050	
29,865000	0,66	-0,018830	
29,876000	0,66	-0,023930	
29,887000	0,66	-0,023160	
29,898000	0,66	-0,015160	
29,909000	0,66	-0,013940	
29,920000	0,66	-0,018970	
29,931000	0,66	-0,027600	
29,942000	0,66	-0,031240	
29,953000	0,66	-0,008190	
29,964000	0,66	0,000100	
29,975000	0,66	-0,006840	
29,986000	0,66	-0,007380	
29,997000	0,66	-0,018470	
30,008000	0,66	-0,028330	
30,019000	0,66	-0,034800	
30,030000	0,66	-0,031890	
30,041000	0,66	-0,028730	
30,052000	0,66	-0,040550	
30,063000	0,66	-0,050880	
30,074000	0,66	-0,039940	
30,085000	0,66	-0,024320	
30,096000	0,66	-0,026130	
30,107000	0,66	-0,023450	
30,118000	0,66	-0,022950	
30,129000	0,66	-0,013420	
30,140000	0,66	-0,031020	
30,151000	0,66	-0,049290	
30,162000	0,66	-0,036450	
30,173000	0,66	-0,022370	
30,184000	0,66	-0,029050	
30,195000	0,66	-0,035400	
30,206000	0,66	-0,040740	
30,217000	0,66	-0,042590	
30,228000	0,66	-0,028080	
30,239000	0,66	-0,021890	
30,250000	0,66	-0,044390	
30,261000	0,66	-0,060820	
30,272000	0,66	-0,054480	
30,283000	0,66	-0,050850	
30,294000	0,66	-0,050650	
30,305000	0,66	-0,044240	
30,316000	0,66	-0,033120	
30,327000	0,66	-0,024980	
30,338000	0,66	-0,028330	
30,349000	0,66	-0,038200	
30,360000	0,66	-0,051090	
30,371000	0,66	-0,049650	
30,382000	0,66	-0,046610	
30,393000	0,66	-0,054040	
30,404000	0,66	-0,043000	
30,415000	0,66	-0,044250	
30,426000	0,66	-0,040120	
30,437000	0,66	-0,043700	
30,448000	0,66	-0,058110	
30,459000	0,66	-0,060910	
30,470000	0,66	-0,054450	
30,481000	0,66	-0,052020	
30,492000	0,66	-0,058590	
30,503000	0,66	-0,051930	
30,514000	0,66	-0,029880	
30,525000	0,66	-0,030570	
30,536000	0,66	-0,014950	
30,547000	0,66	-0,017520	
30,558000	0,66	-0,030730	
30,569000	0,66	-0,044360	
30,580000	0,66	-0,051080	
30,591000	0,66	-0,040510	
30,602000	0,66	-0,026420	
30,613000	0,66	-0,020440	
30,624000	0,66	-0,020830	
30,635000	0,66	-0,014420	
30,646000	0,66	-0,012840	
30,657000	0,66	-0,032680	
30,668000	0,66	-0,030830	
30,679000	0,66	-0,031630	
30,690000	0,66	-0,020740	
30,701000	0,66	-0,038800	
30,712000	0,66	-0,053280	
30,723000	0,66	-0,055990	
30,734000	0,66	-0,056550	
30,745000	0,66	-0,069630	
30,756000	0,66	-0,074150	
30,767000	0,66	-0,083680	
30,778000	0,66	-0,084140	
30,789000	0,66	-0,079750	
30,800000	0,66	-0,073810	
30,811000	0,66	-0,083480	
30,822000	0,66	-0,073190	
30,833000	0,66	-0,058320	
30,844000	0,66	-0,061880	
30,855000	0,66	-0,046690	
30,866000	0,66	-0,044750	
30,877000	0,66	-0,053080	
30,888000	0,66	-0,064570	
30,899000	0,66	-0,058460	
30,910000	0,66	-0,044590	
30,921000	0,66	-0,045800	
30,932000	0,66	-0,056660	
30,943000	0,66	-0,055280	
30,954000	0,66	-0,030620	
30,965000	0,66	-0,015580	
30,976000	0,66	-0,022210	
30,987000	0,66	-0,031590	
30,998000	0,66	-0,031450	
31,009000	0,66	-0,022370	
31,020000	0,66	-0,023310	
31,031000	0,66	-0,031090	
31,042000	0,66	-0,034970	
31,053000	0,66	-0,038720	
31,064000	0,66	-0,039580	
31,075000	0,66	-0,041840	
31,086000	0,66	-0,055860	
31,097000	0,66	-0,075150	
31,108000	0,66	-0,085090	
31,119000	0,66	-0,085960	
31,130000	0,66	-0,076740	
31,141000	0,66	-0,060470	
31,152000	0,66	-0,060990	
31,163000	0,66	-0,067370	
31,174000	0,66	-0,046170	
31,185000	0,66	-0,034350	
31,196000	0,66	-0,036050	
31,207000	0,66	-0,036320	
31,218000	0,66	-0,027240	
31,229000	0,66	-0,038580	
31,240000	0,66	-0,052910	
31,251000	0,66	-0,054570	
31,262000	0,66	-0,048120	
31,273000	0,66	-0,036510	
31,284000	0,66	-0,018970	
31,295000	0,66	-0,014000	
31,306000	0,66	-0,037050	
31,317000	0,66	-0,055590	
31,328000	0,66	-0,048480	
31,339000	0,66	-0,025140	
31,350000	0,66	-0,027130	
31,361000	0,66	-0,043740	
31,372000	0,66	-0,069930	
31,383000	0,66	-0,053500	
31,394000	0,66	-0,050690	
31,405000	0,66	-0,042550	
31,416000	0,66	-0,053460	
31,427000	0,66	-0,050290	
31,438000	0,66	-0,045460	
31,449000	0,66	-0,029790	
31,460000	0,66	-0,017200	
31,471000	0,66	-0,015970	
31,482000	0,66	-0,030370	
31,493000	0,66	-0,041820	
31,504000	0,66	-0,048500	
31,515000	0,66	-0,054330	
31,526000	0,66	-0,060360	
31,537000	0,66	-0,073320	
31,548000	0,66	-0,072940	
31,559000	0,66	-0,064080	
31,570000	0,66	-0,063080	
31,581000	0,66	-0,065260	
31,592000	0,66	-0,058650	
31,603000	0,66	-0,050110	
31,614000	0,66	-0,049440	
31,625000	0,66	-0,061690	
31,636000	0,66	-0,072750	
31,647000	0,66	-0,065540	
31,658000	0,66	-0,059220	
31,669000	0,66	-0,059300	
31,680000	0,66	-0,051990	
31,691000	0,66	-0,049690	
31,702000	0,66	-0,055510	
31,713000	0,66	-0,057140	
31,724000	0,66	-0,050530	
31,735000	0,66	-0,045310	
31,746000	0,66	-0,044690	
31,757000	0,66	-0,036580	
31,768000	0,66	-0,048250	
31,779000	0,66	-0,065620	
31,790000	0,66	-0,057400	
31,801000	0,66	-0,036770	
31,812000	0,66	-0,038320	
31,823000	0,66	-0,036720	
31,834000	0,66	-0,044190	
31,845000	0,66	-0,037350	
31,856000	0,66	-0,027100	
31,867000	0,66	-0,041300	
31,878000	0,66	-0,048320	
31,889000	0,66	-0,031820	
31,900000	0,66	-0,034800	
31,911000	0,66	-0,029860	
31,922000	0,66	-0,024550	
31,933000	0,66	-0,038050	
31,944000	0,66	-0,046080	
31,955000	0,66	-0,035330	
31,966000	0,66	-0,039130	
31,977000	0,66	-0,048390	
31,988000	0,66	-0,060770	
31,999000	0,66	-0,066920	
32,010000	0,66	-0,062770	
32,021000	0,66	-0,058140	
32,032000	0,66	-0,045140	
32,043000	0,66	-0,051760	
32,054000	0,66	-0,052030	
32,065000	0,66	-0,055010	
32,076000	0,66	-0,052180	
32,087000	0,66	-0,040780	
32,098000	0,66	-0,046720	
32,109000	0,66	-0,051010	
32,120000	0,66	-0,048120	
32,131000	0,66	-0,048270	
32,142000	0,66	-0,047580	
32,153000	0,66	-0,060820	
32,164000	0,66	-0,076750	
32,175000	0,66	-0,082230	
32,186000	0,66	-0,072650	
32,197000	0,66	-0,049100	
32,208000	0,66	-0,046720	
32,219000	0,66	-0,060870	
32,230000	0,66	-0,068770	
32,241000	0,66	-0,066020	
32,252000	0,66	-0,067150	
32,263000	0,66	-0,062560	
32,274000	0,66	-0,042050	
32,285000	0,66	-0,047840	
32,296000	0,66	-0,044700	
32,307000	0,66	-0,051240	
32,318000	0,66	-0,051470	
32,329000	0,66	-0,046310	
32,340000	0,66	-0,049100	
32,351000	0,66	-0,048970	
32,362000	0,66	-0,057160	
32,373000	0,66	-0,054040	
32,384000	0,66	-0,053840	
32,395000	0,66	-0,066390	
32,406000	0,66	-0,058740	
32,417000	0,66	-0,039250	
32,428000	0,66	-0,030580	
32,439000	0,66	-0,034150	
32,450000	0,66	-0,023610	
32,461000	0,66	-0,016010	
32,472000	0,66	-0,013830	
32,483000	0,66	-0,020000	
32,494000	0,66	-0,025050	
32,505000	0,66	-0,037120	
32,516000	0,66	-0,042490	
32,527000	0,66	-0,036570	
32,538000	0,66	-0,050850	
32,549000	0,66	-0,055090	
32,560000	0,66	-0,064970	
32,571000	0,66	-0,072850	
32,582000	0,66	-0,075110	
32,593000	0,66	-0,069050	
32,604000	0,66	-0,070230	
32,615000	0,66	-0,062660	
32,626000	0,66	-0,046200	
32,637000	0,66	-0,047430	
32,648000	0,66	-0,060570	
32,659000	0,66	-0,051350	
32,670000	0,66	-0,040090	
32,681000	0,66	-0,029000	
32,692000	0,66	-0,043940	
32,703000	0,66	-0,061720	
32,714000	0,66	-0,056120	
32,725000	0,66	-0,056420	
32,736000	0,66	-0,061900	
32,747000	0,66	-0,063430	
32,758000	0,66	-0,070280	
32,769000	0,66	-0,079650	
32,780000	0,66	-0,075590	
32,791000	0,66	-0,073240	
32,802000	0,66	-0,071600	
32,813000	0,66	-0,058690	
32,824000	0,66	-0,055660	
32,835000	0,66	-0,066460	
32,846000	0,66	-0,064640	
32,857000	0,66	-0,066120	
32,868000	0,66	-0,060380	
32,879000	0,66	-0,065670	
32,890000	0,66	-0,080630	
32,901000	0,66	-0,086300	
32,912000	0,66	-0,092340	
32,923000	0,66	-0,074670	
32,934000	0,66	-0,051290	
32,945000	0,66	-0,032480	
32,956000	0,66	-0,025950	
32,967000	0,66	-0,033620	
32,978000	0,66	-0,053060	
32,989000	0,66	-0,058740	
33,000000	0,66	-0,046770	
33,011000	0,66	-0,042340	
33,022000	0,66	-0,036790	
33,033000	0,66	-0,036760	
33,044000	0,66	-0,048120	
33,055000	0,66	-0,052950	
33,066000	0,66	-0,060280	
33,077000	0,66	-0,077710	
33,088000	0,66	-0,080470	
33,099000	0,66	-0,074150	
33,110000	0,66	-0,067650	
33,121000	0,66	-0,059140	
33,132000	0,66	-0,064930	
33,143000	0,66	-0,064160	
33,154000	0,66	-0,060240	
33,165000	0,66	-0,059560	
33,176000	0,66	-0,058890	
33,187000	0,66	-0,057380	
33,198000	0,66	-0,058390	
33,209000	0,66	-0,059260	
33,220000	0,66	-0,047060	
33,231000	0,66	-0,047730	
33,242000	0,66	-0,041890	
33,253000	0,66	-0,060950	
33,264000	0,66	-0,075020	
33,275000	0,66	-0,072710	
33,286000	0,66	-0,065670	
33,297000	0,66	-0,064080	
33,308000	0,66	-0,070810	
33,319000	0,66	-0,075980	
33,330000	0,66	-0,081700	
33,341000	0,66	-0,089370	
33,352000	0,66	-0,081310	
33,363000	0,66	-0,076560	
33,374000	0,66	-0,045140	
33,385000	0,66	-0,050450	
33,396000	0,66	-0,047070	
33,407000	0,66	-0,046230	
33,418000	0,66	-0,038100	
33,429000	0,66	-0,029020	
33,440000	0,66	-0,025920	
33,451000	0,66	-0,038430	
33,462000	0,66	-0,058980	
33,473000	0,66	-0,072360	
33,484000	0,66	-0,068400	
33,495000	0,66	-0,065250	
33,506000	0,66	-0,072560	
33,517000	0,66	-0,073240	
33,528000	0,66	-0,065750	
33,539000	0,66	-0,050420	
33,550000	0,66	-0,033390	
33,561000	0,66	-0,016260	
33,572000	0,66	-0,034110	
33,583000	0,66	-0,038120	
33,594000	0,66	-0,047760	
33,605000	0,66	-0,044180	
33,616000	0,66	-0,042180	
33,627000	0,66	-0,054990	
33,638000	0,66	-0,073250	
33,649000	0,66	-0,068830	
33,660000	0,66	-0,061920	
33,671000	0,66	-0,056640	
33,682000	0,66	-0,049520	
33,693000	0,66	-0,039560	
33,704000	0,66	-0,033730	
33,715000	0,66	-0,039250	
33,726000	0,66	-0,047690	
33,737000	0,66	-0,052340	
33,748000	0,66	-0,051070	
33,759000	0,66	-0,047540	
33,770000	0,66	-0,047090	
33,781000	0,66	-0,048810	
33,792000	0,66	-0,046590	
33,803000	0,66	-0,034670	
33,814000	0,66	-0,032560	
33,825000	0,66	-0,038140	
33,836000	0,66	-0,025170	
33,847000	0,66	-0,020090	
33,858000	0,66	-0,028890	
33,869000	0,66	-0,042000	
33,880000	0,66	-0,048580	
33,891000	0,66	-0,046430	
33,902000	0,66	-0,041510	
33,913000	0,66	-0,030520	
33,924000	0,66	-0,029470	
33,935000	0,66	-0,047300	
33,946000	0,66	-0,055170	
33,957000	0,66	-0,063380	
33,968000	0,66	-0,056140	
33,979000	0,66	-0,049370	
33,990000	0,66	-0,053660	
34,001000	0,66	-0,047820	
34,012000	0,66	-0,057980	
34,023000	0,66	-0,062900	
34,034000	0,66	-0,070120	
34,045000	0,66	-0,070550	
34,056000	0,66	-0,062840	
34,067000	0,66	-0,051720	
34,078000	0,66	-0,045680	
34,089000	0,66	-0,067840	
34,100000	0,66	-0,084760	
34,111000	0,66	-0,086210	
34,122000	0,66	-0,071780	
34,133000	0,66	-0,056870	
34,144000	0,66	-0,049590	
34,155000	0,66	-0,041730	
34,166000	0,66	-0,037410	
34,177000	0,66	-0,034980	
34,188000	0,66	-0,035520	
34,199000	0,66	-0,049660	
34,210000	0,66	-0,046980	
34,221000	0,66	-0,041740	
34,232000	0,66	-0,035900	
34,243000	0,66	-0,040360	
34,254000	0,66	-0,047280	
34,265000	0,66	-0,044960	
34,276000	0,66	-0,054640	
34,287000	0,66	-0,058750	
34,298000	0,66	-0,057850	
34,309000	0,66	-0,067260	
34,320000	0,66	-0,069770	
34,331000	0,66	-0,062880	
34,342000	0,66	-0,055560	
34,353000	0,66	-0,062680	
34,364000	0,66	-0,069960	
34,375000	0,66	-0,072080	
34,386000	0,66	-0,068050	
34,397000	0,66	-0,070580	
34,408000	0,66	-0,062650	
34,419000	0,66	-0,057530	
34,430000	0,66	-0,057830	
34,441000	0,66	-0,057130	
34,452000	0,66	-0,067810	
34,463000	0,66	-0,072370	
34,474000	0,66	-0,060650	
34,485000	0,66	-0,060170	
34,496000	0,66	-0,071010	
34,507000	0,66	-0,073060	
34,518000	0,66	-0,076260	
34,529000	0,66	-0,076950	
34,540000	0,66	-0,064910	
34,551000	0,66	-0,055530	
34,562000	0,66	-0,059250	
34,573000	0,66	-0,056350	
34,584000	0,66	-0,066210	
34,595000	0,66	-0,074750	
34,606000	0,66	-0,076220	
34,617000	0,66	-0,092610	
34,628000	0,66	-0,078660	
34,639000	0,66	-0,070620	
34,650000	0,66	-0,080700	
34,661000	0,66	-0,065270	
34,672000	0,66	-0,065420	
34,683000	0,66	-0,067770	
34,694000	0,66	-0,059550	
34,705000	0,66	-0,058350	
34,716000	0,66	-0,040440	
34,727000	0,66	-0,031320	
34,738000	0,66	-0,029400	
34,749000	0,66	-0,044980	
34,760000	0,66	-0,036780	
34,771000	0,66	-0,037480	
34,782000	0,66	-0,051590	
34,793000	0,66	-0,065030	
34,804000	0,66	-0,079620	
34,815000	0,66	-0,064790	
34,826000	0,66	-0,060490	
34,837000	0,66	-0,050810	
34,848000	0,66	-0,047570	
34,859000	0,66	-0,050550	
34,870000	0,66	-0,061950	
34,881000	0,66	-0,049340	
34,892000	0,66	-0,055700	
34,903000	0,66	-0,061150	
34,914000	0,66	-0,056220	
34,925000	0,66	-0,038700	
34,936000	0,66	-0,042160	
34,947000	0,66	-0,049470	
34,958000	0,66	-0,058590	
34,969000	0,66	-0,048200	
34,980000	0,66	-0,052590	
34,991000	0,66	-0,041010	
35,002000	0,66	-0,035300	
35,013000	0,66	-0,034900	
35,024000	0,66	-0,048900	
35,035000	0,66	-0,076730	
35,046000	0,66	-0,070540	
35,057000	0,66	-0,047630	
35,068000	0,66	-0,033910	
35,079000	0,66	-0,014380	
35,090000	0,66	-0,007680	
35,101000	0,66	-0,007590	
35,112000	0,66	-0,013350	
35,123000	0,66	-0,024750	
35,134000	0,66	-0,027790	
35,145000	0,66	-0,043540	
35,156000	0,66	-0,074220	
35,167000	0,66	-0,081680	
35,178000	0,66	-0,069400	
35,189000	0,66	-0,065410	
35,200000	0,66	-0,071870	
35,211000	0,66	-0,075070	
35,222000	0,66	-0,065570	
35,233000	0,66	-0,060890	
35,244000	0,66	-0,057050	
35,255000	0,66	-0,053200	
35,266000	0,66	-0,054200	
35,277000	0,66	-0,066010	
35,288000	0,66	-0,068480	
35,299000	0,66	-0,078140	
35,310000	0,66	-0,080010	
35,321000	0,66	-0,080360	
35,332000	0,66	-0,077150	
35,343000	0,66	-0,090500	
35,354000	0,66	-0,091300	
35,365000	0,66	-0,095240	
35,376000	0,66	-0,086700	
35,387000	0,66	-0,078500	
35,398000	0,66	-0,074320	
35,409000	0,66	-0,065030	
35,420000	0,66	-0,063060	
35,431000	0,66	-0,079400	
35,442000	0,66	-0,078130	
35,453000	0,66	-0,080040	
35,464000	0,66	-0,079070	
35,475000	0,66	-0,090490	
35,486000	0,66	-0,082280	
35,497000	0,66	-0,097210	
35,508000	0,66	-0,104260	
35,519000	0,66	-0,103800	
35,530000	0,66	-0,096580	
35,541000	0,66	-0,094310	
35,552000	0,66	-0,086400	
35,563000	0,66	-0,099910	
35,574000	0,66	-0,102390	
35,585000	0,66	-0,092310	
35,596000	0,66	-0,098860	
35,607000	0,66	-0,085120	
35,618000	0,66	-0,078910	
35,629000	0,66	-0,081480	
35,640000	0,66	-0,079190	
35,651000	0,66	-0,070680	
35,662000	0,66	-0,065210	
35,673000	0,66	-0,070490	
35,684000	0,66	-0,067650	
35,695000	0,66	-0,061850	
35,706000	0,66	-0,067170	
35,717000	0,66	-0,075110	
35,728000	0,66	-0,074600	
35,739000	0,66	-0,056250	
35,750000	0,66	-0,041100	
35,761000	0,66	-0,042740	
35,772000	0,66	-0,045210	
35,783000	0,66	-0,060800	
35,794000	0,66	-0,067790	
35,805000	0,66	-0,057700	
35,816000	0,66	-0,057420	
35,827000	0,66	-0,071190	
35,838000	0,66	-0,084460	
35,849000	0,66	-0,091640	
35,860000	0,66	-0,091710	
35,871000	0,66	-0,096500	
35,882000	0,66	-0,102930	
35,893000	0,66	-0,082990	
35,904000	0,66	-0,062840	
35,915000	0,66	-0,068370	
35,926000	0,66	-0,072850	
35,937000	0,66	-0,068280	
35,948000	0,66	-0,061890	
35,959000	0,66	-0,064580	
35,970000	0,66	-0,060510	
35,981000	0,66	-0,050320	
35,992000	0,66	-0,056390	
36,003000	0,66	-0,061640	
36,014000	0,66	-0,064390	
36,025000	0,66	-0,044640	
36,036000	0,66	-0,023150	
36,047000	0,66	-0,013540	
36,058000	0,66	-0,022280	
36,069000	0,66	-0,044390	
36,080000	0,66	-0,052540	
36,091000	0,66	-0,063450	
36,102000	0,66	-0,062940	
36,113000	0,66	-0,082460	
36,124000	0,66	-0,076020	
36,135000	0,66	-0,047550	
36,146000	0,66	-0,024710	
36,157000	0,66	-0,034710	
36,168000	0,66	-0,031390	
36,179000	0,66	-0,034730	
36,190000	0,66	-0,038010	
36,201000	0,66	-0,047870	
36,212000	0,66	-0,049000	
36,223000	0,66	-0,050330	
36,234000	0,66	-0,048340	
36,245000	0,66	-0,053520	
36,256000	0,66	-0,063970	
36,267000	0,66	-0,050170	
36,278000	0,66	-0,055190	
36,289000	0,66	-0,060410	
36,300000	0,66	-0,079630	
36,311000	0,66	-0,088950	
36,322000	0,66	-0,082200	
36,333000	0,66	-0,067260	
36,344000	0,66	-0,083750	
36,355000	0,66	-0,081820	
36,366000	0,66	-0,077840	
36,377000	0,66	-0,070060	
36,388000	0,66	-0,064880	
36,399000	0,66	-0,067360	
36,410000	0,66	-0,055650	
36,421000	0,66	-0,041160	
36,432000	0,66	-0,042990	
36,443000	0,66	-0,049620	
36,454000	0,66	-0,057740	
36,465000	0,66	-0,071000	
36,476000	0,66	-0,068230	
36,487000	0,66	-0,070850	
36,498000	0,66	-0,061000	
36,509000	0,66	-0,043450	
36,520000	0,66	-0,046860	
36,531000	0,66	-0,051630	
36,542000	0,66	-0,066380	
36,553000	0,66	-0,070120	
36,564000	0,66	-0,060080	
36,575000	0,66	-0,071290	
36,586000	0,66	-0,081810	
36,597000	0,66	-0,082920	
36,608000	0,66	-0,075870	
36,619000	0,66	-0,068240	
36,630000	0,66	-0,061870	
36,641000	0,66	-0,069930	
36,652000	0,66	-0,077970	
36,663000	0,66	-0,082300	
36,674000	0,66	-0,091400	
36,685000	0,66	-0,083700	
36,696000	0,66	-0,075430	
36,707000	0,66	-0,084980	
36,718000	0,66	-0,085600	
36,729000	0,66	-0,073310	
36,740000	0,66	-0,082600	
36,751000	0,66	-0,090070	
36,762000	0,66	-0,099280	
36,773000	0,66	-0,098810	
36,784000	0,66	-0,084820	
36,795000	0,66	-0,088350	
36,806000	0,66	-0,094760	
36,817000	0,66	-0,089160	
36,828000	0,66	-0,079830	
36,839000	0,66	-0,070330	
36,850000	0,66	-0,085370	
36,861000	0,66	-0,097130	
36,872000	0,66	-0,095510	
36,883000	0,66	-0,065850	
36,894000	0,66	-0,070690	
36,905000	0,66	-0,086040	
36,916000	0,66	-0,093000	
36,927000	0,66	-0,100290	
36,938000	0,66	-0,101180	
36,949000	0,66	-0,097840	
36,960000	0,66	-0,111420	
36,971000	0,66	-0,111730	
36,982000	0,66	-0,097240	
36,993000	0,66	-0,099410	
37,004000	0,66	-0,102580	
37,015000	0,66	-0,091430	
37,026000	0,66	-0,093800	
37,037000	0,66	-0,093660	
37,048000	0,66	-0,109130	
37,059000	0,66	-0,109000	
37,070000	0,66	-0,103560	
37,081000	0,66	-0,092140	
37,092000	0,66	-0,085070	
37,103000	0,66	-0,090600	
37,114000	0,66	-0,093610	
37,125000	0,66	-0,104920	
37,136000	0,66	-0,111860	
37,147000	0,66	-0,107680	
37,158000	0,66	-0,108660	
37,169000	0,66	-0,106180	
37,180000	0,66	-0,102750	
37,191000	0,66	-0,110250	
37,202000	0,66	-0,116500	
37,213000	0,66	-0,116120	
37,224000	0,66	-0,106940	
37,235000	0,66	-0,101610	
37,246000	0,66	-0,098980	
37,257000	0,66	-0,088310	
37,268000	0,66	-0,088930	
37,279000	0,66	-0,097510	
37,290000	0,66	-0,098830	
37,301000	0,66	-0,105980	
37,312000	0,66	-0,112180	
37,323000	0,66	-0,105560	
37,334000	0,66	-0,114860	
37,345000	0,66	-0,134350	
37,356000	0,66	-0,139100	
37,367000	0,66	-0,137320	
37,378000	0,66	-0,122470	
37,389000	0,66	-0,106150	
37,400000	0,66	-0,116260	
37,411000	0,66	-0,117160	
37,422000	0,66	-0,109400	
37,433000	0,66	-0,106450	
37,444000	0,66	-0,114710	
37,455000	0,66	-0,102490	
37,466000	0,66	-0,089100	
37,477000	0,66	-0,103480	
37,488000	0,66	-0,107720	
37,499000	0,66	-0,104670	
37,510000	0,66	-0,119930	
37,521000	0,66	-0,137970	
37,532000	0,66	-0,133010	
37,543000	0,66	-0,145260	
37,554000	0,66	-0,138960	
37,565000	0,66	-0,139400	
37,576000	0,66	-0,125200	
37,587000	0,66	-0,129220	
37,598000	0,66	-0,134630	
37,609000	0,66	-0,122360	
37,620000	0,66	-0,128500	
37,631000	0,66	-0,129620	
37,642000	0,66	-0,119050	
37,653000	0,66	-0,109940	
37,664000	0,66	-0,104840	
37,675000	0,66	-0,098880	
37,686000	0,66	-0,101530	
37,697000	0,66	-0,118780	
37,708000	0,66	-0,125530	
37,719000	0,66	-0,132780	
37,730000	0,66	-0,132370	
37,741000	0,66	-0,128400	
37,752000	0,66	-0,113620	
37,763000	0,66	-0,115090	
37,774000	0,66	-0,106590	
37,785000	0,66	-0,115270	
37,796000	0,66	-0,106980	
37,807000	0,66	-0,117010	
37,818000	0,66	-0,135970	
37,829000	0,66	-0,133100	
37,840000	0,66	-0,115700	
37,851000	0,66	-0,106230	
37,862000	0,66	-0,108600	
37,873000	0,66	-0,116160	
37,884000	0,66	-0,117670	
37,895000	0,66	-0,121210	
37,906000	0,66	-0,124240	
37,917000	0,66	-0,130980	
37,928000	0,66	-0,131070	
37,939000	0,66	-0,117320	
37,950000	0,66	-0,114520	
37,961000	0,66	-0,109850	
37,972000	0,66	-0,103210	
37,983000	0,66	-0,109780	
37,994000	0,66	-0,106990	
38,005000	0,66	-0,107610	
38,016000	0,66	-0,120490	
38,027000	0,66	-0,114220	
38,038000	0,66	-0,107620	
38,049000	0,66	-0,108470	
38,060000	0,66	-0,119960	
38,071000	0,66	-0,122400	
38,082000	0,66	-0,113110	
38,093000	0,66	-0,107090	
38,104000	0,66	-0,103540	
38,115000	0,66	-0,092110	
38,126000	0,66	-0,096810	
38,137000	0,66	-0,099910	
38,148000	0,66	-0,105780	
38,159000	0,66	-0,115880	
38,170000	0,66	-0,141340	
38,181000	0,66	-0,126150	
38,192000	0,66	-0,120300	
38,203000	0,66	-0,136480	
38,214000	0,66	-0,122990	
38,225000	0,66	-0,119120	
38,236000	0,66	-0,126430	
38,247000	0,66	-0,115210	
38,258000	0,66	-0,110190	
38,269000	0,66	-0,116500	
38,280000	0,66	-0,107350	
38,291000	0,66	-0,095060	
38,302000	0,66	-0,102900	
38,313000	0,66	-0,105690	
38,324000	0,66	-0,113150	
38,335000	0,66	-0,118430	
38,346000	0,66	-0,113790	
38,357000	0,66	-0,118000	
38,368000	0,66	-0,129440	
38,379000	0,66	-0,145460	
38,390000	0,66	-0,131700	
38,401000	0,66	-0,108910	
38,412000	0,66	-0,094690	
38,423000	0,66	-0,091690	
38,434000	0,66	-0,075570	
38,445000	0,66	-0,074000	
38,456000	0,66	-0,082070	
38,467000	0,66	-0,082600	
38,478000	0,66	-0,084260	
38,489000	0,66	-0,095030	
38,500000	0,66	-0,097630	
38,511000	0,66	-0,112910	
38,522000	0,66	-0,116100	
38,533000	0,66	-0,095720	
38,544000	0,66	-0,072440	
38,555000	0,66	-0,060220	
38,566000	0,66	-0,061840	
38,577000	0,66	-0,072790	
38,588000	0,66	-0,079490	
38,599000	0,66	-0,092050	
38,610000	0,66	-0,088350	
38,621000	0,66	-0,068590	
38,632000	0,66	-0,066770	
38,643000	0,66	-0,079150	
38,654000	0,66	-0,078530	
38,665000	0,66	-0,069580	
38,676000	0,66	-0,071290	
38,687000	0,66	-0,069290	
38,698000	0,66	-0,057880	
38,709000	0,66	-0,051780	
38,720000	0,66	-0,066740	
38,731000	0,66	-0,079790	
38,742000	0,66	-0,072470	
38,753000	0,66	-0,062300	
38,764000	0,66	-0,059840	
38,775000	0,66	-0,054840	
38,786000	0,66	-0,070590	
38,797000	0,66	-0,070890	
38,808000	0,66	-0,066540	
38,819000	0,66	-0,061440	
38,830000	0,66	-0,062400	
38,841000	0,66	-0,053990	
38,852000	0,66	-0,043270	
38,863000	0,66	-0,038680	
38,874000	0,66	-0,043690	
38,885000	0,66	-0,040300	
38,896000	0,66	-0,060090	
38,907000	0,66	-0,072560	
38,918000	0,66	-0,056460	
38,929000	0,66	-0,056160	
38,940000	0,66	-0,052210	
38,951000	0,66	-0,040210	
38,962000	0,66	-0,023690	
38,973000	0,66	-0,031690	
38,984000	0,66	-0,041100	
38,995000	0,66	-0,051550	
39,006000	0,66	-0,035430	
39,017000	0,66	-0,029840	
39,028000	0,66	-0,033060	
39,039000	0,66	-0,036400	
39,050000	0,66	-0,040980	
39,061000	0,66	-0,035740	
39,072000	0,66	-0,029570	
39,083000	0,66	-0,048960	
39,094000	0,66	-0,056030	
39,105000	0,66	-0,073550	
39,116000	0,66	-0,079830	
39,127000	0,66	-0,070410	
39,138000	0,66	-0,053800	
39,149000	0,66	-0,048000	
39,160000	0,66	-0,041370	
39,171000	0,66	-0,056220	
39,182000	0,66	-0,045550	
39,193000	0,66	-0,042310	
39,204000	0,66	-0,033200	
39,215000	0,66	-0,030990	
39,226000	0,66	-0,038910	
39,237000	0,66	-0,031970	
39,248000	0,66	-0,025950	
39,259000	0,66	-0,020230	
39,270000	0,66	-0,015600	
39,281000	0,66	-0,003720	
39,292000	0,66	-0,000630	
39,303000	0,66	-0,017800	
39,314000	0,66	-0,028540	
39,325000	0,66	-0,027540	
39,336000	0,66	-0,024520	
39,347000	0,66	-0,035240	
39,358000	0,66	-0,037500	
39,369000	0,66	-0,022660	
39,380000	0,66	-0,031140	
39,391000	0,66	-0,046480	
39,402000	0,66	-0,052570	
39,413000	0,66	-0,045490	
39,424000	0,66	-0,037430	
39,435000	0,66	-0,019050	
39,446000	0,66	-0,006000	
39,457000	0,66	-0,014940	
39,468000	0,66	-0,016580	
39,479000	0,66	-0,011090	
39,490000	0,66	-0,027900	
39,501000	0,66	-0,033260	
39,512000	0,66	-0,037880	
39,523000	0,66	-0,019930	
39,534000	0,66	-0,021010	
39,545000	0,66	-0,004910	
39,556000	0,66	0,003740	
39,567000	0,66	-0,022020	
39,578000	0,66	-0,034140	
39,589000	0,66	-0,029250	
39,600000	0,66	-0,031980	
39,611000	0,66	-0,023690	
39,622000	0,66	-0,013280	
39,633000	0,66	0,001090	
39,644000	0,66	0,018220	
39,655000	0,66	0,001270	
39,666000	0,66	-0,003790	
39,677000	0,66	-0,016710	
39,688000	0,66	-0,026450	
39,699000	0,66	-0,028040	
39,710000	0,66	-0,032360	
39,721000	0,66	-0,036690	
39,732000	0,66	-0,042670	
39,743000	0,66	-0,027440	
39,754000	0,66	0,004810	
39,765000	0,66	0,020680	
39,776000	0,66	0,012790	
39,787000	0,66	-0,003560	
39,798000	0,66	-0,013700	
39,809000	0,66	-0,007730	
39,820000	0,66	0,016950	
39,831000	0,66	0,019960	
39,842000	0,66	0,030860	
39,853000	0,66	0,043460	
39,864000	0,66	0,039920	
39,875000	0,66	0,022490	
39,886000	0,66	0,007330	
39,897000	0,66	-0,004550	
39,908000	0,66	-0,001250	
39,919000	0,66	0,006180	
39,930000	0,66	0,004920	
39,941000	0,66	0,010290	
39,952000	0,66	0,026100	
39,963000	0,66	0,033130	
39,974000	0,66	0,036540	
39,985000	0,66	0,046370	
39,996000	0,66	0,045530	
40,007000	0,66	0,042560	
