Filepath	C:\Chromel\data\Analytik\Walther group\Guido\mechanosense\GCR260.SEQ\UV_VIS_1.CHL\12214.acd
Channel	UV_VIS_1

Sample Information:
Datasource	PC-8NN4M2J_local
Sequence	Analytik\Walther group\Guido\mechanosense\GCR260.SEQ
Sample	200717-13
Sample Number	318
Sample Position	RC3
Sample ID	12214
Comment	260-P5-4
QNT method	default
PGM file	single-component-3 40min 60C 0,4mLmin
Type	unknown
Status	finished
Date	17.07.2020
Time	19:30:01
Injection Volume (µl)	100,00
Dilution Factor	1,000000
Amount	1,000000
Weight	1,000000

Raw Data Header Information:
Time Min. (min)	0,000
Time Max. (min)	40,007
Raw-Time Min. (min)	0,000
Raw-Time Max. (min)	40,007
Data Points	3638
Detector	VWD3000.dll
Preferred Read Mode	Unknown
Write Mode	Unknown
Data System	Chromeleon
Version High	06
Version Low	80
Build No.	3160
File Format Version	11
Generation Type	8
File ID	239054205
File Status	16
GUID	d4bb8dda-c852-11ea-b409-00184d71f7da
Signal Factor	0,000010
Signal Dimension	mAU
Signal Unit	Absorbance
Signal Min.	0,003580
Signal Max.	409,361220
Channel Name	UV_VIS_1
Driver Name	VWD-3x00 Detector
Min. Step	66
Max. Step	66
Average Step	66

Signal Parameter Information:
Signal Info	WVL:260 nm
Wavelength	260 nm
	 




















Raw Data:
Time(min)	Step(sec)	Value(mAU)
0,000000	0,00	0,040650	
0,011000	0,66	0,040570	
0,022000	0,66	0,039270	
0,033000	0,66	0,035280	
0,044000	0,66	0,031290	
0,055000	0,66	0,029460	
0,066000	0,66	0,029100	
0,077000	0,66	0,025050	
0,088000	0,66	0,022990	
0,099000	0,66	0,018380	
0,110000	0,66	0,017950	
0,121000	0,66	0,019710	
0,132000	0,66	0,020790	
0,143000	0,66	0,021200	
0,154000	0,66	0,021270	
0,165000	0,66	0,021530	
0,176000	0,66	0,020160	
0,187000	0,66	0,020830	
0,198000	0,66	0,021230	
0,209000	0,66	0,022100	
0,220000	0,66	0,023110	
0,231000	0,66	0,024910	
0,242000	0,66	0,022970	
0,253000	0,66	0,021040	
0,264000	0,66	0,021500	
0,275000	0,66	0,020190	
0,286000	0,66	0,016240	
0,297000	0,66	0,014360	
0,308000	0,66	0,013960	
0,319000	0,66	0,011240	
0,330000	0,66	0,009830	
0,341000	0,66	0,009150	
0,352000	0,66	0,008530	
0,363000	0,66	0,010760	
0,374000	0,66	0,012710	
0,385000	0,66	0,012860	
0,396000	0,66	0,010690	
0,407000	0,66	0,008660	
0,418000	0,66	0,008560	
0,429000	0,66	0,009660	
0,440000	0,66	0,011470	
0,451000	0,66	0,010180	
0,462000	0,66	0,011480	
0,473000	0,66	0,012510	
0,484000	0,66	0,012510	
0,495000	0,66	0,009910	
0,506000	0,66	0,008000	
0,517000	0,66	0,011100	
0,528000	0,66	0,013610	
0,539000	0,66	0,012790	
0,550000	0,66	0,011850	
0,561000	0,66	0,011950	
0,572000	0,66	0,007800	
0,583000	0,66	0,005270	
0,594000	0,66	0,003580	
0,605000	0,66	0,004980	
0,616000	0,66	0,004880	
0,627000	0,66	0,007410	
0,638000	0,66	0,011540	
0,649000	0,66	0,009560	
0,660000	0,66	0,006360	
0,671000	0,66	0,008650	
0,682000	0,66	0,009290	
0,693000	0,66	0,013450	
0,704000	0,66	0,014770	
0,715000	0,66	0,013780	
0,726000	0,66	0,014120	
0,737000	0,66	0,011950	
0,748000	0,66	0,011160	
0,759000	0,66	0,015060	
0,770000	0,66	0,019260	
0,781000	0,66	0,019360	
0,792000	0,66	0,019730	
0,803000	0,66	0,021130	
0,814000	0,66	0,021520	
0,825000	0,66	0,023210	
0,836000	0,66	0,023280	
0,847000	0,66	0,022340	
0,858000	0,66	0,020690	
0,869000	0,66	0,018890	
0,880000	0,66	0,018050	
0,891000	0,66	0,017830	
0,902000	0,66	0,017760	
0,913000	0,66	0,018710	
0,924000	0,66	0,019920	
0,935000	0,66	0,019760	
0,946000	0,66	0,021390	
0,957000	0,66	0,022910	
0,968000	0,66	0,024080	
0,979000	0,66	0,024800	
0,990000	0,66	0,022760	
1,001000	0,66	0,020880	
1,012000	0,66	0,021900	
1,023000	0,66	0,024450	
1,034000	0,66	0,026500	
1,045000	0,66	0,026860	
1,056000	0,66	0,026530	
1,067000	0,66	0,025570	
1,078000	0,66	0,024210	
1,089000	0,66	0,024720	
1,100000	0,66	0,026040	
1,111000	0,66	0,025700	
1,122000	0,66	0,025090	
1,133000	0,66	0,026880	
1,144000	0,66	0,028070	
1,155000	0,66	0,025470	
1,166000	0,66	0,024420	
1,177000	0,66	0,027310	
1,188000	0,66	0,030600	
1,199000	0,66	0,031890	
1,210000	0,66	0,030800	
1,221000	0,66	0,030000	
1,232000	0,66	0,029850	
1,243000	0,66	0,032500	
1,254000	0,66	0,034830	
1,265000	0,66	0,041710	
1,276000	0,66	0,075860	
1,287000	0,66	0,207300	
1,298000	0,66	0,667320	
1,309000	0,66	1,968750	
1,320000	0,66	4,770180	
1,331000	0,66	9,307530	
1,342000	0,66	15,004700	
1,353000	0,66	20,822660	
1,364000	0,66	25,753950	
1,375000	0,66	29,243800	
1,386000	0,66	31,236230	
1,397000	0,66	32,003380	
1,408000	0,66	31,915870	
1,419000	0,66	31,313810	
1,430000	0,66	30,451290	
1,441000	0,66	29,470330	
1,452000	0,66	28,465750	
1,463000	0,66	27,465080	
1,474000	0,66	26,474490	
1,485000	0,66	25,481930	
1,496000	0,66	24,481250	
1,507000	0,66	23,459480	
1,518000	0,66	22,392950	
1,529000	0,66	21,269910	
1,540000	0,66	20,093240	
1,551000	0,66	18,865660	
1,562000	0,66	17,606180	
1,573000	0,66	16,332420	
1,584000	0,66	15,058800	
1,595000	0,66	13,814140	
1,606000	0,66	12,628440	
1,617000	0,66	11,529180	
1,628000	0,66	10,532920	
1,639000	0,66	9,647330	
1,650000	0,66	8,886280	
1,661000	0,66	8,236600	
1,672000	0,66	7,679940	
1,683000	0,66	7,195600	
1,694000	0,66	6,767450	
1,705000	0,66	6,383780	
1,716000	0,66	6,034460	
1,727000	0,66	5,710740	
1,738000	0,66	5,406140	
1,749000	0,66	5,119070	
1,760000	0,66	4,848990	
1,771000	0,66	4,590720	
1,782000	0,66	4,344950	
1,793000	0,66	4,114900	
1,804000	0,66	3,900030	
1,815000	0,66	3,697870	
1,826000	0,66	3,508240	
1,837000	0,66	3,331620	
1,848000	0,66	3,171340	
1,859000	0,66	3,025740	
1,870000	0,66	2,886150	
1,881000	0,66	2,756820	
1,892000	0,66	2,636420	
1,903000	0,66	2,524010	
1,914000	0,66	2,421910	
1,925000	0,66	2,325270	
1,936000	0,66	2,233180	
1,947000	0,66	2,150440	
1,958000	0,66	2,070210	
1,969000	0,66	1,991630	
1,980000	0,66	1,915730	
1,991000	0,66	1,844690	
2,002000	0,66	1,778640	
2,013000	0,66	1,715470	
2,024000	0,66	1,657930	
2,035000	0,66	1,600660	
2,046000	0,66	1,541600	
2,057000	0,66	1,486140	
2,068000	0,66	1,435030	
2,079000	0,66	1,382510	
2,090000	0,66	1,328560	
2,101000	0,66	1,279470	
2,112000	0,66	1,227160	
2,123000	0,66	1,172540	
2,134000	0,66	1,115180	
2,145000	0,66	1,054300	
2,156000	0,66	0,997740	
2,167000	0,66	0,991500	
2,178000	0,66	1,104040	
2,189000	0,66	1,254710	
2,200000	0,66	1,298350	
2,211000	0,66	1,211710	
2,222000	0,66	1,061330	
2,233000	0,66	0,913820	
2,244000	0,66	0,799580	
2,255000	0,66	0,728850	
2,266000	0,66	0,688850	
2,277000	0,66	0,668420	
2,288000	0,66	0,658350	
2,299000	0,66	0,654460	
2,310000	0,66	0,646390	
2,321000	0,66	0,639050	
2,332000	0,66	0,631060	
2,343000	0,66	0,622030	
2,354000	0,66	0,608760	
2,365000	0,66	0,595810	
2,376000	0,66	0,588770	
2,387000	0,66	0,577940	
2,398000	0,66	0,566730	
2,409000	0,66	0,555030	
2,420000	0,66	0,543770	
2,431000	0,66	0,534870	
2,442000	0,66	0,526900	
2,453000	0,66	0,518190	
2,464000	0,66	0,508000	
2,475000	0,66	0,499490	
2,486000	0,66	0,489860	
2,497000	0,66	0,479500	
2,508000	0,66	0,471200	
2,519000	0,66	0,463390	
2,530000	0,66	0,458960	
2,541000	0,66	0,454920	
2,552000	0,66	0,446810	
2,563000	0,66	0,437590	
2,574000	0,66	0,432260	
2,585000	0,66	0,428100	
2,596000	0,66	0,423990	
2,607000	0,66	0,418190	
2,618000	0,66	0,413030	
2,629000	0,66	0,405770	
2,640000	0,66	0,398000	
2,651000	0,66	0,393860	
2,662000	0,66	0,386850	
2,673000	0,66	0,381450	
2,684000	0,66	0,375630	
2,695000	0,66	0,371520	
2,706000	0,66	0,369040	
2,717000	0,66	0,364680	
2,728000	0,66	0,361060	
2,739000	0,66	0,355890	
2,750000	0,66	0,352900	
2,761000	0,66	0,352430	
2,772000	0,66	0,349280	
2,783000	0,66	0,344020	
2,794000	0,66	0,340020	
2,805000	0,66	0,338320	
2,816000	0,66	0,335840	
2,827000	0,66	0,329470	
2,838000	0,66	0,326150	
2,849000	0,66	0,323730	
2,860000	0,66	0,322320	
2,871000	0,66	0,319860	
2,882000	0,66	0,318180	
2,893000	0,66	0,317220	
2,904000	0,66	0,313710	
2,915000	0,66	0,309270	
2,926000	0,66	0,304100	
2,937000	0,66	0,299520	
2,948000	0,66	0,293200	
2,959000	0,66	0,282980	
2,970000	0,66	0,271680	
2,981000	0,66	0,263180	
2,992000	0,66	0,257540	
3,003000	0,66	0,251440	
3,014000	0,66	0,242650	
3,025000	0,66	0,231400	
3,036000	0,66	0,220350	
3,047000	0,66	0,213170	
3,058000	0,66	0,208840	
3,069000	0,66	0,205580	
3,080000	0,66	0,204730	
3,091000	0,66	0,205530	
3,102000	0,66	0,207090	
3,113000	0,66	0,207490	
3,124000	0,66	0,208840	
3,135000	0,66	0,210340	
3,146000	0,66	0,210210	
3,157000	0,66	0,210380	
3,168000	0,66	0,209340	
3,179000	0,66	0,204830	
3,190000	0,66	0,202640	
3,201000	0,66	0,204850	
3,212000	0,66	0,206500	
3,223000	0,66	0,206700	
3,234000	0,66	0,205330	
3,245000	0,66	0,204720	
3,256000	0,66	0,202290	
3,267000	0,66	0,200610	
3,278000	0,66	0,200380	
3,289000	0,66	0,198580	
3,300000	0,66	0,196930	
3,311000	0,66	0,195020	
3,322000	0,66	0,191290	
3,333000	0,66	0,190740	
3,344000	0,66	0,189580	
3,355000	0,66	0,188370	
3,366000	0,66	0,187770	
3,377000	0,66	0,189570	
3,388000	0,66	0,191560	
3,399000	0,66	0,188250	
3,410000	0,66	0,188330	
3,421000	0,66	0,186880	
3,432000	0,66	0,184760	
3,443000	0,66	0,181160	
3,454000	0,66	0,180410	
3,465000	0,66	0,177680	
3,476000	0,66	0,179090	
3,487000	0,66	0,182800	
3,498000	0,66	0,181220	
3,509000	0,66	0,179900	
3,520000	0,66	0,176970	
3,531000	0,66	0,176490	
3,542000	0,66	0,178230	
3,553000	0,66	0,177740	
3,564000	0,66	0,173330	
3,575000	0,66	0,169750	
3,586000	0,66	0,171720	
3,597000	0,66	0,171310	
3,608000	0,66	0,169410	
3,619000	0,66	0,170110	
3,630000	0,66	0,170140	
3,641000	0,66	0,170880	
3,652000	0,66	0,170310	
3,663000	0,66	0,170990	
3,674000	0,66	0,171720	
3,685000	0,66	0,169220	
3,696000	0,66	0,166140	
3,707000	0,66	0,164510	
3,718000	0,66	0,162870	
3,729000	0,66	0,162270	
3,740000	0,66	0,161950	
3,751000	0,66	0,161220	
3,762000	0,66	0,161710	
3,773000	0,66	0,164630	
3,784000	0,66	0,165870	
3,795000	0,66	0,165540	
3,806000	0,66	0,165010	
3,817000	0,66	0,163380	
3,828000	0,66	0,164490	
3,839000	0,66	0,166300	
3,850000	0,66	0,163790	
3,861000	0,66	0,160020	
3,872000	0,66	0,158390	
3,883000	0,66	0,158590	
3,894000	0,66	0,158400	
3,905000	0,66	0,158920	
3,916000	0,66	0,160650	
3,927000	0,66	0,160140	
3,938000	0,66	0,158080	
3,949000	0,66	0,155580	
3,960000	0,66	0,156120	
3,971000	0,66	0,157380	
3,982000	0,66	0,157420	
3,993000	0,66	0,156060	
4,004000	0,66	0,155590	
4,015000	0,66	0,157610	
4,026000	0,66	0,161250	
4,037000	0,66	0,163120	
4,048000	0,66	0,159770	
4,059000	0,66	0,158120	
4,070000	0,66	0,155130	
4,081000	0,66	0,152250	
4,092000	0,66	0,152630	
4,103000	0,66	0,155200	
4,114000	0,66	0,152780	
4,125000	0,66	0,153140	
4,136000	0,66	0,155610	
4,147000	0,66	0,158650	
4,158000	0,66	0,157460	
4,169000	0,66	0,155620	
4,180000	0,66	0,153450	
4,191000	0,66	0,153660	
4,202000	0,66	0,153850	
4,213000	0,66	0,153830	
4,224000	0,66	0,155580	
4,235000	0,66	0,152520	
4,246000	0,66	0,153060	
4,257000	0,66	0,155170	
4,268000	0,66	0,156340	
4,279000	0,66	0,159200	
4,290000	0,66	0,158280	
4,301000	0,66	0,153200	
4,312000	0,66	0,150440	
4,323000	0,66	0,148710	
4,334000	0,66	0,149180	
4,345000	0,66	0,145990	
4,356000	0,66	0,147590	
4,367000	0,66	0,151130	
4,378000	0,66	0,150850	
4,389000	0,66	0,152270	
4,400000	0,66	0,151900	
4,411000	0,66	0,151020	
4,422000	0,66	0,153120	
4,433000	0,66	0,155030	
4,444000	0,66	0,153140	
4,455000	0,66	0,149300	
4,466000	0,66	0,145890	
4,477000	0,66	0,145440	
4,488000	0,66	0,145850	
4,499000	0,66	0,147840	
4,510000	0,66	0,147410	
4,521000	0,66	0,145770	
4,532000	0,66	0,144920	
4,543000	0,66	0,143010	
4,554000	0,66	0,144740	
4,565000	0,66	0,149260	
4,576000	0,66	0,152570	
4,587000	0,66	0,155190	
4,598000	0,66	0,153770	
4,609000	0,66	0,151220	
4,620000	0,66	0,151980	
4,631000	0,66	0,151770	
4,642000	0,66	0,150010	
4,653000	0,66	0,146890	
4,664000	0,66	0,146140	
4,675000	0,66	0,142670	
4,686000	0,66	0,143790	
4,697000	0,66	0,145180	
4,708000	0,66	0,143540	
4,719000	0,66	0,141830	
4,730000	0,66	0,138520	
4,741000	0,66	0,138470	
4,752000	0,66	0,140580	
4,763000	0,66	0,147190	
4,774000	0,66	0,149550	
4,785000	0,66	0,147720	
4,796000	0,66	0,145920	
4,807000	0,66	0,147830	
4,818000	0,66	0,150890	
4,829000	0,66	0,150830	
4,840000	0,66	0,151060	
4,851000	0,66	0,149860	
4,862000	0,66	0,150490	
4,873000	0,66	0,151650	
4,884000	0,66	0,152410	
4,895000	0,66	0,155120	
4,906000	0,66	0,148790	
4,917000	0,66	0,148200	
4,928000	0,66	0,149050	
4,939000	0,66	0,147700	
4,950000	0,66	0,151630	
4,961000	0,66	0,151630	
4,972000	0,66	0,150940	
4,983000	0,66	0,151190	
4,994000	0,66	0,152780	
5,005000	0,66	0,153550	
5,016000	0,66	0,155770	
5,027000	0,66	0,155180	
5,038000	0,66	0,151970	
5,049000	0,66	0,152050	
5,060000	0,66	0,153170	
5,071000	0,66	0,150550	
5,082000	0,66	0,148730	
5,093000	0,66	0,151360	
5,104000	0,66	0,154970	
5,115000	0,66	0,158950	
5,126000	0,66	0,160200	
5,137000	0,66	0,159110	
5,148000	0,66	0,158030	
5,159000	0,66	0,156160	
5,170000	0,66	0,156340	
5,181000	0,66	0,156570	
5,192000	0,66	0,157020	
5,203000	0,66	0,157570	
5,214000	0,66	0,157330	
5,225000	0,66	0,158370	
5,236000	0,66	0,161560	
5,247000	0,66	0,163670	
5,258000	0,66	0,164250	
5,269000	0,66	0,165740	
5,280000	0,66	0,167600	
5,291000	0,66	0,168390	
5,302000	0,66	0,169200	
5,313000	0,66	0,170840	
5,324000	0,66	0,168990	
5,335000	0,66	0,166840	
5,346000	0,66	0,167550	
5,357000	0,66	0,168570	
5,368000	0,66	0,173400	
5,379000	0,66	0,178360	
5,390000	0,66	0,180940	
5,401000	0,66	0,185820	
5,412000	0,66	0,193140	
5,423000	0,66	0,201910	
5,434000	0,66	0,211240	
5,445000	0,66	0,224040	
5,456000	0,66	0,235380	
5,467000	0,66	0,246730	
5,478000	0,66	0,260370	
5,489000	0,66	0,271370	
5,500000	0,66	0,286670	
5,511000	0,66	0,302780	
5,522000	0,66	0,318930	
5,533000	0,66	0,335820	
5,544000	0,66	0,353190	
5,555000	0,66	0,368500	
5,566000	0,66	0,380230	
5,577000	0,66	0,391140	
5,588000	0,66	0,403960	
5,599000	0,66	0,408540	
5,610000	0,66	0,410110	
5,621000	0,66	0,412470	
5,632000	0,66	0,411760	
5,643000	0,66	0,405970	
5,654000	0,66	0,397100	
5,665000	0,66	0,386850	
5,676000	0,66	0,373600	
5,687000	0,66	0,356980	
5,698000	0,66	0,341530	
5,709000	0,66	0,325720	
5,720000	0,66	0,313610	
5,731000	0,66	0,301310	
5,742000	0,66	0,287790	
5,753000	0,66	0,274960	
5,764000	0,66	0,265080	
5,775000	0,66	0,256740	
5,786000	0,66	0,249620	
5,797000	0,66	0,241870	
5,808000	0,66	0,238680	
5,819000	0,66	0,236360	
5,830000	0,66	0,231900	
5,841000	0,66	0,229270	
5,852000	0,66	0,228480	
5,863000	0,66	0,227930	
5,874000	0,66	0,227620	
5,885000	0,66	0,231620	
5,896000	0,66	0,235420	
5,907000	0,66	0,234830	
5,918000	0,66	0,234810	
5,929000	0,66	0,234550	
5,940000	0,66	0,236040	
5,951000	0,66	0,238670	
5,962000	0,66	0,240450	
5,973000	0,66	0,244670	
5,984000	0,66	0,248930	
5,995000	0,66	0,250220	
6,006000	0,66	0,249350	
6,017000	0,66	0,251490	
6,028000	0,66	0,254960	
6,039000	0,66	0,259640	
6,050000	0,66	0,260920	
6,061000	0,66	0,262290	
6,072000	0,66	0,263920	
6,083000	0,66	0,266110	
6,094000	0,66	0,264840	
6,105000	0,66	0,263020	
6,116000	0,66	0,264150	
6,127000	0,66	0,268360	
6,138000	0,66	0,273980	
6,149000	0,66	0,276510	
6,160000	0,66	0,279660	
6,171000	0,66	0,282540	
6,182000	0,66	0,284620	
6,193000	0,66	0,285030	
6,204000	0,66	0,281880	
6,215000	0,66	0,280280	
6,226000	0,66	0,280580	
6,237000	0,66	0,284270	
6,248000	0,66	0,287640	
6,259000	0,66	0,288990	
6,270000	0,66	0,292820	
6,281000	0,66	0,294010	
6,292000	0,66	0,293840	
6,303000	0,66	0,299650	
6,314000	0,66	0,304330	
6,325000	0,66	0,304610	
6,336000	0,66	0,305280	
6,347000	0,66	0,308750	
6,358000	0,66	0,310880	
6,369000	0,66	0,309380	
6,380000	0,66	0,311270	
6,391000	0,66	0,315650	
6,402000	0,66	0,319040	
6,413000	0,66	0,323960	
6,424000	0,66	0,328140	
6,435000	0,66	0,325830	
6,446000	0,66	0,325180	
6,457000	0,66	0,327490	
6,468000	0,66	0,329670	
6,479000	0,66	0,334090	
6,490000	0,66	0,336450	
6,501000	0,66	0,337080	
6,512000	0,66	0,339520	
6,523000	0,66	0,340710	
6,534000	0,66	0,343600	
6,545000	0,66	0,349520	
6,556000	0,66	0,351650	
6,567000	0,66	0,351580	
6,578000	0,66	0,350990	
6,589000	0,66	0,350540	
6,600000	0,66	0,352670	
6,611000	0,66	0,354360	
6,622000	0,66	0,355560	
6,633000	0,66	0,356470	
6,644000	0,66	0,355070	
6,655000	0,66	0,354410	
6,666000	0,66	0,354980	
6,677000	0,66	0,356690	
6,688000	0,66	0,360430	
6,699000	0,66	0,364310	
6,710000	0,66	0,366640	
6,721000	0,66	0,368650	
6,732000	0,66	0,372960	
6,743000	0,66	0,374820	
6,754000	0,66	0,376260	
6,765000	0,66	0,375890	
6,776000	0,66	0,377230	
6,787000	0,66	0,377780	
6,798000	0,66	0,378840	
6,809000	0,66	0,381280	
6,820000	0,66	0,380910	
6,831000	0,66	0,384940	
6,842000	0,66	0,386340	
6,853000	0,66	0,387720	
6,864000	0,66	0,388480	
6,875000	0,66	0,391620	
6,886000	0,66	0,393740	
6,897000	0,66	0,393790	
6,908000	0,66	0,391710	
6,919000	0,66	0,395870	
6,930000	0,66	0,398730	
6,941000	0,66	0,397850	
6,952000	0,66	0,398110	
6,963000	0,66	0,399340	
6,974000	0,66	0,401610	
6,985000	0,66	0,404430	
6,996000	0,66	0,401270	
7,007000	0,66	0,400490	
7,018000	0,66	0,400990	
7,029000	0,66	0,402740	
7,040000	0,66	0,406670	
7,051000	0,66	0,414170	
7,062000	0,66	0,418450	
7,073000	0,66	0,416480	
7,084000	0,66	0,414860	
7,095000	0,66	0,413140	
7,106000	0,66	0,414710	
7,117000	0,66	0,415640	
7,128000	0,66	0,417990	
7,139000	0,66	0,420700	
7,150000	0,66	0,421260	
7,161000	0,66	0,421920	
7,172000	0,66	0,423350	
7,183000	0,66	0,425940	
7,194000	0,66	0,427750	
7,205000	0,66	0,427680	
7,216000	0,66	0,428720	
7,227000	0,66	0,429200	
7,238000	0,66	0,430460	
7,249000	0,66	0,433340	
7,260000	0,66	0,437770	
7,271000	0,66	0,441060	
7,282000	0,66	0,443300	
7,293000	0,66	0,444020	
7,304000	0,66	0,445470	
7,315000	0,66	0,446440	
7,326000	0,66	0,445340	
7,337000	0,66	0,444750	
7,348000	0,66	0,446050	
7,359000	0,66	0,448860	
7,370000	0,66	0,451470	
7,381000	0,66	0,452940	
7,392000	0,66	0,454120	
7,403000	0,66	0,457070	
7,414000	0,66	0,458500	
7,425000	0,66	0,458870	
7,436000	0,66	0,460970	
7,447000	0,66	0,460690	
7,458000	0,66	0,460440	
7,469000	0,66	0,461340	
7,480000	0,66	0,462740	
7,491000	0,66	0,466750	
7,502000	0,66	0,470070	
7,513000	0,66	0,472850	
7,524000	0,66	0,473960	
7,535000	0,66	0,474240	
7,546000	0,66	0,474900	
7,557000	0,66	0,474060	
7,568000	0,66	0,478010	
7,579000	0,66	0,481470	
7,590000	0,66	0,482540	
7,601000	0,66	0,485440	
7,612000	0,66	0,489400	
7,623000	0,66	0,491820	
7,634000	0,66	0,494420	
7,645000	0,66	0,494610	
7,656000	0,66	0,493210	
7,667000	0,66	0,495870	
7,678000	0,66	0,499260	
7,689000	0,66	0,500080	
7,700000	0,66	0,501850	
7,711000	0,66	0,504970	
7,722000	0,66	0,508360	
7,733000	0,66	0,512740	
7,744000	0,66	0,516090	
7,755000	0,66	0,515160	
7,766000	0,66	0,517100	
7,777000	0,66	0,516750	
7,788000	0,66	0,517600	
7,799000	0,66	0,518170	
7,810000	0,66	0,520200	
7,821000	0,66	0,520750	
7,832000	0,66	0,523960	
7,843000	0,66	0,528390	
7,854000	0,66	0,530050	
7,865000	0,66	0,530130	
7,876000	0,66	0,531940	
7,887000	0,66	0,535210	
7,898000	0,66	0,536200	
7,909000	0,66	0,537510	
7,920000	0,66	0,538530	
7,931000	0,66	0,541640	
7,942000	0,66	0,542920	
7,953000	0,66	0,545770	
7,964000	0,66	0,547600	
7,975000	0,66	0,549440	
7,986000	0,66	0,551790	
7,997000	0,66	0,551180	
8,008000	0,66	0,550030	
8,019000	0,66	0,552600	
8,030000	0,66	0,556330	
8,041000	0,66	0,556230	
8,052000	0,66	0,553810	
8,063000	0,66	0,554160	
8,074000	0,66	0,558800	
8,085000	0,66	0,565410	
8,096000	0,66	0,567720	
8,107000	0,66	0,567440	
8,118000	0,66	0,569970	
8,129000	0,66	0,571190	
8,140000	0,66	0,575520	
8,151000	0,66	0,579670	
8,162000	0,66	0,581950	
8,173000	0,66	0,580580	
8,184000	0,66	0,579110	
8,195000	0,66	0,579270	
8,206000	0,66	0,580890	
8,217000	0,66	0,585570	
8,228000	0,66	0,587030	
8,239000	0,66	0,588240	
8,250000	0,66	0,587980	
8,261000	0,66	0,591010	
8,272000	0,66	0,589870	
8,283000	0,66	0,590050	
8,294000	0,66	0,593720	
8,305000	0,66	0,597020	
8,316000	0,66	0,594800	
8,327000	0,66	0,594150	
8,338000	0,66	0,597270	
8,349000	0,66	0,600400	
8,360000	0,66	0,602800	
8,371000	0,66	0,606360	
8,382000	0,66	0,607970	
8,393000	0,66	0,610970	
8,404000	0,66	0,611310	
8,415000	0,66	0,613740	
8,426000	0,66	0,613120	
8,437000	0,66	0,616800	
8,448000	0,66	0,618410	
8,459000	0,66	0,621200	
8,470000	0,66	0,625700	
8,481000	0,66	0,630190	
8,492000	0,66	0,632590	
8,503000	0,66	0,633210	
8,514000	0,66	0,634720	
8,525000	0,66	0,639160	
8,536000	0,66	0,641830	
8,547000	0,66	0,642280	
8,558000	0,66	0,642800	
8,569000	0,66	0,644330	
8,580000	0,66	0,646220	
8,591000	0,66	0,649590	
8,602000	0,66	0,655180	
8,613000	0,66	0,658620	
8,624000	0,66	0,656100	
8,635000	0,66	0,652230	
8,646000	0,66	0,655720	
8,657000	0,66	0,660770	
8,668000	0,66	0,664520	
8,679000	0,66	0,666530	
8,690000	0,66	0,666290	
8,701000	0,66	0,665860	
8,712000	0,66	0,666780	
8,723000	0,66	0,670790	
8,734000	0,66	0,674940	
8,745000	0,66	0,677320	
8,756000	0,66	0,678290	
8,767000	0,66	0,679310	
8,778000	0,66	0,682410	
8,789000	0,66	0,686020	
8,800000	0,66	0,688780	
8,811000	0,66	0,689650	
8,822000	0,66	0,693320	
8,833000	0,66	0,697530	
8,844000	0,66	0,700950	
8,855000	0,66	0,701770	
8,866000	0,66	0,700680	
8,877000	0,66	0,703590	
8,888000	0,66	0,707060	
8,899000	0,66	0,709310	
8,910000	0,66	0,710850	
8,921000	0,66	0,712060	
8,932000	0,66	0,712070	
8,943000	0,66	0,713120	
8,954000	0,66	0,714750	
8,965000	0,66	0,720320	
8,976000	0,66	0,723400	
8,987000	0,66	0,724160	
8,998000	0,66	0,726280	
9,009000	0,66	0,728030	
9,020000	0,66	0,728340	
9,031000	0,66	0,731840	
9,042000	0,66	0,737500	
9,053000	0,66	0,739640	
9,064000	0,66	0,739160	
9,075000	0,66	0,741130	
9,086000	0,66	0,741280	
9,097000	0,66	0,743230	
9,108000	0,66	0,746820	
9,119000	0,66	0,751670	
9,130000	0,66	0,755950	
9,141000	0,66	0,754470	
9,152000	0,66	0,755170	
9,163000	0,66	0,758100	
9,174000	0,66	0,755740	
9,185000	0,66	0,752450	
9,196000	0,66	0,756120	
9,207000	0,66	0,758430	
9,218000	0,66	0,759360	
9,229000	0,66	0,760620	
9,240000	0,66	0,761500	
9,251000	0,66	0,764280	
9,262000	0,66	0,768050	
9,273000	0,66	0,768030	
9,284000	0,66	0,766890	
9,295000	0,66	0,770370	
9,306000	0,66	0,769950	
9,317000	0,66	0,768940	
9,328000	0,66	0,770380	
9,339000	0,66	0,772590	
9,350000	0,66	0,774910	
9,361000	0,66	0,777220	
9,372000	0,66	0,779950	
9,383000	0,66	0,782730	
9,394000	0,66	0,784120	
9,405000	0,66	0,786620	
9,416000	0,66	0,791010	
9,427000	0,66	0,794110	
9,438000	0,66	0,795710	
9,449000	0,66	0,801440	
9,460000	0,66	0,809260	
9,471000	0,66	0,814230	
9,482000	0,66	0,818680	
9,493000	0,66	0,821050	
9,504000	0,66	0,823450	
9,515000	0,66	0,828130	
9,526000	0,66	0,830580	
9,537000	0,66	0,829260	
9,548000	0,66	0,826470	
9,559000	0,66	0,822680	
9,570000	0,66	0,819710	
9,581000	0,66	0,816960	
9,592000	0,66	0,817480	
9,603000	0,66	0,818100	
9,614000	0,66	0,816190	
9,625000	0,66	0,813270	
9,636000	0,66	0,816120	
9,647000	0,66	0,816310	
9,658000	0,66	0,819830	
9,669000	0,66	0,819650	
9,680000	0,66	0,817960	
9,691000	0,66	0,814470	
9,702000	0,66	0,814080	
9,713000	0,66	0,817070	
9,724000	0,66	0,816350	
9,735000	0,66	0,813870	
9,746000	0,66	0,812640	
9,757000	0,66	0,814330	
9,768000	0,66	0,817910	
9,779000	0,66	0,820710	
9,790000	0,66	0,819920	
9,801000	0,66	0,820790	
9,812000	0,66	0,824250	
9,823000	0,66	0,825420	
9,834000	0,66	0,827940	
9,845000	0,66	0,830980	
9,856000	0,66	0,833130	
9,867000	0,66	0,834560	
9,878000	0,66	0,835460	
9,889000	0,66	0,836740	
9,900000	0,66	0,838090	
9,911000	0,66	0,840350	
9,922000	0,66	0,840730	
9,933000	0,66	0,841730	
9,944000	0,66	0,841960	
9,955000	0,66	0,843780	
9,966000	0,66	0,845510	
9,977000	0,66	0,846430	
9,988000	0,66	0,849990	
9,999000	0,66	0,852020	
10,010000	0,66	0,852820	
10,021000	0,66	0,855800	
10,032000	0,66	0,855290	
10,043000	0,66	0,853550	
10,054000	0,66	0,853050	
10,065000	0,66	0,854740	
10,076000	0,66	0,857890	
10,087000	0,66	0,859640	
10,098000	0,66	0,861040	
10,109000	0,66	0,862350	
10,120000	0,66	0,862840	
10,131000	0,66	0,862540	
10,142000	0,66	0,864910	
10,153000	0,66	0,867870	
10,164000	0,66	0,868110	
10,175000	0,66	0,869590	
10,186000	0,66	0,871570	
10,197000	0,66	0,872750	
10,208000	0,66	0,872720	
10,219000	0,66	0,876300	
10,230000	0,66	0,881430	
10,241000	0,66	0,882320	
10,252000	0,66	0,879810	
10,263000	0,66	0,882450	
10,274000	0,66	0,886210	
10,285000	0,66	0,888640	
10,296000	0,66	0,890910	
10,307000	0,66	0,893160	
10,318000	0,66	0,897160	
10,329000	0,66	0,898540	
10,340000	0,66	0,899130	
10,351000	0,66	0,899390	
10,362000	0,66	0,900930	
10,373000	0,66	0,901120	
10,384000	0,66	0,904430	
10,395000	0,66	0,906550	
10,406000	0,66	0,905850	
10,417000	0,66	0,904050	
10,428000	0,66	0,903140	
10,439000	0,66	0,903150	
10,450000	0,66	0,905310	
10,461000	0,66	0,906660	
10,472000	0,66	0,911670	
10,483000	0,66	0,913440	
10,494000	0,66	0,911660	
10,505000	0,66	0,913090	
10,516000	0,66	0,914020	
10,527000	0,66	0,916300	
10,538000	0,66	0,918720	
10,549000	0,66	0,919510	
10,560000	0,66	0,921090	
10,571000	0,66	0,924460	
10,582000	0,66	0,924560	
10,593000	0,66	0,928490	
10,604000	0,66	0,930920	
10,615000	0,66	0,930220	
10,626000	0,66	0,930020	
10,637000	0,66	0,930550	
10,648000	0,66	0,930600	
10,659000	0,66	0,930990	
10,670000	0,66	0,933180	
10,681000	0,66	0,936550	
10,692000	0,66	0,939050	
10,703000	0,66	0,937730	
10,714000	0,66	0,936950	
10,725000	0,66	0,936790	
10,736000	0,66	0,938450	
10,747000	0,66	0,942020	
10,758000	0,66	0,945420	
10,769000	0,66	0,947670	
10,780000	0,66	0,947120	
10,791000	0,66	0,946770	
10,802000	0,66	0,949060	
10,813000	0,66	0,950880	
10,824000	0,66	0,951500	
10,835000	0,66	0,950880	
10,846000	0,66	0,949840	
10,857000	0,66	0,952030	
10,868000	0,66	0,954960	
10,879000	0,66	0,956840	
10,890000	0,66	0,960600	
10,901000	0,66	0,962810	
10,912000	0,66	0,962480	
10,923000	0,66	0,962310	
10,934000	0,66	0,962430	
10,945000	0,66	0,964810	
10,956000	0,66	0,966800	
10,967000	0,66	0,968210	
10,978000	0,66	0,970290	
10,989000	0,66	0,974910	
11,000000	0,66	0,977800	
11,011000	0,66	0,977120	
11,022000	0,66	0,977480	
11,033000	0,66	0,981210	
11,044000	0,66	0,982880	
11,055000	0,66	0,986130	
11,066000	0,66	0,988850	
11,077000	0,66	0,987250	
11,088000	0,66	0,986790	
11,099000	0,66	0,986830	
11,110000	0,66	0,988950	
11,121000	0,66	0,991910	
11,132000	0,66	0,993400	
11,143000	0,66	0,994120	
11,154000	0,66	0,998340	
11,165000	0,66	1,000640	
11,176000	0,66	0,999310	
11,187000	0,66	1,002140	
11,198000	0,66	1,003230	
11,209000	0,66	1,003470	
11,220000	0,66	1,002240	
11,231000	0,66	1,004200	
11,242000	0,66	1,006280	
11,253000	0,66	1,007380	
11,264000	0,66	1,010380	
11,275000	0,66	1,013740	
11,286000	0,66	1,016630	
11,297000	0,66	1,017720	
11,308000	0,66	1,016620	
11,319000	0,66	1,013100	
11,330000	0,66	1,012080	
11,341000	0,66	1,015770	
11,352000	0,66	1,018020	
11,363000	0,66	1,018630	
11,374000	0,66	1,019160	
11,385000	0,66	1,019890	
11,396000	0,66	1,026610	
11,407000	0,66	1,032270	
11,418000	0,66	1,035280	
11,429000	0,66	1,036370	
11,440000	0,66	1,037190	
11,451000	0,66	1,041840	
11,462000	0,66	1,042750	
11,473000	0,66	1,040450	
11,484000	0,66	1,038690	
11,495000	0,66	1,037200	
11,506000	0,66	1,037800	
11,517000	0,66	1,035840	
11,528000	0,66	1,031770	
11,539000	0,66	1,028160	
11,550000	0,66	1,026670	
11,561000	0,66	1,028360	
11,572000	0,66	1,027670	
11,583000	0,66	1,026440	
11,594000	0,66	1,025530	
11,605000	0,66	1,026660	
11,616000	0,66	1,028090	
11,627000	0,66	1,028040	
11,638000	0,66	1,030240	
11,649000	0,66	1,030900	
11,660000	0,66	1,030490	
11,671000	0,66	1,030500	
11,682000	0,66	1,030090	
11,693000	0,66	1,030840	
11,704000	0,66	1,033000	
11,715000	0,66	1,035530	
11,726000	0,66	1,038920	
11,737000	0,66	1,041760	
11,748000	0,66	1,040680	
11,759000	0,66	1,038920	
11,770000	0,66	1,036270	
11,781000	0,66	1,039980	
11,792000	0,66	1,043290	
11,803000	0,66	1,047730	
11,814000	0,66	1,048420	
11,825000	0,66	1,047630	
11,836000	0,66	1,049360	
11,847000	0,66	1,054880	
11,858000	0,66	1,055030	
11,869000	0,66	1,056270	
11,880000	0,66	1,059430	
11,891000	0,66	1,061790	
11,902000	0,66	1,064340	
11,913000	0,66	1,067630	
11,924000	0,66	1,068720	
11,935000	0,66	1,071470	
11,946000	0,66	1,072650	
11,957000	0,66	1,074160	
11,968000	0,66	1,076970	
11,979000	0,66	1,076930	
11,990000	0,66	1,079270	
12,001000	0,66	1,079620	
12,012000	0,66	1,079340	
12,023000	0,66	1,080800	
12,034000	0,66	1,080580	
12,045000	0,66	1,083910	
12,056000	0,66	1,086390	
12,067000	0,66	1,086690	
12,078000	0,66	1,086710	
12,089000	0,66	1,091130	
12,100000	0,66	1,092610	
12,111000	0,66	1,092910	
12,122000	0,66	1,093930	
12,133000	0,66	1,094470	
12,144000	0,66	1,092350	
12,155000	0,66	1,094500	
12,166000	0,66	1,097780	
12,177000	0,66	1,099860	
12,188000	0,66	1,100200	
12,199000	0,66	1,100860	
12,210000	0,66	1,104790	
12,221000	0,66	1,106940	
12,232000	0,66	1,111070	
12,243000	0,66	1,118540	
12,254000	0,66	1,119940	
12,265000	0,66	1,117530	
12,276000	0,66	1,118850	
12,287000	0,66	1,122260	
12,298000	0,66	1,123170	
12,309000	0,66	1,122600	
12,320000	0,66	1,123760	
12,331000	0,66	1,127030	
12,342000	0,66	1,129330	
12,353000	0,66	1,131920	
12,364000	0,66	1,132170	
12,375000	0,66	1,131450	
12,386000	0,66	1,129360	
12,397000	0,66	1,129220	
12,408000	0,66	1,132810	
12,419000	0,66	1,134250	
12,430000	0,66	1,136990	
12,441000	0,66	1,138920	
12,452000	0,66	1,138800	
12,463000	0,66	1,141750	
12,474000	0,66	1,147280	
12,485000	0,66	1,151310	
12,496000	0,66	1,156470	
12,507000	0,66	1,158840	
12,518000	0,66	1,158520	
12,529000	0,66	1,155620	
12,540000	0,66	1,156790	
12,551000	0,66	1,158350	
12,562000	0,66	1,160940	
12,573000	0,66	1,164030	
12,584000	0,66	1,165310	
12,595000	0,66	1,165220	
12,606000	0,66	1,168280	
12,617000	0,66	1,170450	
12,628000	0,66	1,173360	
12,639000	0,66	1,175040	
12,650000	0,66	1,174610	
12,661000	0,66	1,177430	
12,672000	0,66	1,177830	
12,683000	0,66	1,180570	
12,694000	0,66	1,184360	
12,705000	0,66	1,192470	
12,716000	0,66	1,197370	
12,727000	0,66	1,199440	
12,738000	0,66	1,204240	
12,749000	0,66	1,209300	
12,760000	0,66	1,216980	
12,771000	0,66	1,221290	
12,782000	0,66	1,225160	
12,793000	0,66	1,229110	
12,804000	0,66	1,231020	
12,815000	0,66	1,232020	
12,826000	0,66	1,236360	
12,837000	0,66	1,240490	
12,848000	0,66	1,243180	
12,859000	0,66	1,246480	
12,870000	0,66	1,246940	
12,881000	0,66	1,246550	
12,892000	0,66	1,247070	
12,903000	0,66	1,247880	
12,914000	0,66	1,250640	
12,925000	0,66	1,253080	
12,936000	0,66	1,253060	
12,947000	0,66	1,254570	
12,958000	0,66	1,258820	
12,969000	0,66	1,262490	
12,980000	0,66	1,265870	
12,991000	0,66	1,269620	
13,002000	0,66	1,271590	
13,013000	0,66	1,272230	
13,024000	0,66	1,275240	
13,035000	0,66	1,276960	
13,046000	0,66	1,276680	
13,057000	0,66	1,285500	
13,068000	0,66	1,296200	
13,079000	0,66	1,301120	
13,090000	0,66	1,300450	
13,101000	0,66	1,305220	
13,112000	0,66	1,307170	
13,123000	0,66	1,313170	
13,134000	0,66	1,319790	
13,145000	0,66	1,324140	
13,156000	0,66	1,327150	
13,167000	0,66	1,329230	
13,178000	0,66	1,335950	
13,189000	0,66	1,341700	
13,200000	0,66	1,347600	
13,211000	0,66	1,357350	
13,222000	0,66	1,363950	
13,233000	0,66	1,365100	
13,244000	0,66	1,366150	
13,255000	0,66	1,371300	
13,266000	0,66	1,375190	
13,277000	0,66	1,380650	
13,288000	0,66	1,382520	
13,299000	0,66	1,386220	
13,310000	0,66	1,389870	
13,321000	0,66	1,396630	
13,332000	0,66	1,403740	
13,343000	0,66	1,409520	
13,354000	0,66	1,413440	
13,365000	0,66	1,415100	
13,376000	0,66	1,420150	
13,387000	0,66	1,426080	
13,398000	0,66	1,431900	
13,409000	0,66	1,432000	
13,420000	0,66	1,435310	
13,431000	0,66	1,441830	
13,442000	0,66	1,445870	
13,453000	0,66	1,449270	
13,464000	0,66	1,451960	
13,475000	0,66	1,456910	
13,486000	0,66	1,459220	
13,497000	0,66	1,463240	
13,508000	0,66	1,468440	
13,519000	0,66	1,472260	
13,530000	0,66	1,479540	
13,541000	0,66	1,489030	
13,552000	0,66	1,495200	
13,563000	0,66	1,500470	
13,574000	0,66	1,506900	
13,585000	0,66	1,511680	
13,596000	0,66	1,514060	
13,607000	0,66	1,517750	
13,618000	0,66	1,522480	
13,629000	0,66	1,525080	
13,640000	0,66	1,527900	
13,651000	0,66	1,530940	
13,662000	0,66	1,535010	
13,673000	0,66	1,540110	
13,684000	0,66	1,541130	
13,695000	0,66	1,544190	
13,706000	0,66	1,549010	
13,717000	0,66	1,553360	
13,728000	0,66	1,559220	
13,739000	0,66	1,562160	
13,750000	0,66	1,564450	
13,761000	0,66	1,568560	
13,772000	0,66	1,572130	
13,783000	0,66	1,578460	
13,794000	0,66	1,580800	
13,805000	0,66	1,582770	
13,816000	0,66	1,583220	
13,827000	0,66	1,584430	
13,838000	0,66	1,587630	
13,849000	0,66	1,588390	
13,860000	0,66	1,589920	
13,871000	0,66	1,593960	
13,882000	0,66	1,593220	
13,893000	0,66	1,595950	
13,904000	0,66	1,597660	
13,915000	0,66	1,598700	
13,926000	0,66	1,600450	
13,937000	0,66	1,605700	
13,948000	0,66	1,608860	
13,959000	0,66	1,610310	
13,970000	0,66	1,610350	
13,981000	0,66	1,612070	
13,992000	0,66	1,616050	
14,003000	0,66	1,618420	
14,014000	0,66	1,621600	
14,025000	0,66	1,626360	
14,036000	0,66	1,627400	
14,047000	0,66	1,630640	
14,058000	0,66	1,634600	
14,069000	0,66	1,640080	
14,080000	0,66	1,647290	
14,091000	0,66	1,653940	
14,102000	0,66	1,662710	
14,113000	0,66	1,666680	
14,124000	0,66	1,670990	
14,135000	0,66	1,681160	
14,146000	0,66	1,700750	
14,157000	0,66	1,727120	
14,168000	0,66	1,761500	
14,179000	0,66	1,804850	
14,190000	0,66	1,851550	
14,201000	0,66	1,899140	
14,212000	0,66	1,952710	
14,223000	0,66	2,009170	
14,234000	0,66	2,056680	
14,245000	0,66	2,096930	
14,256000	0,66	2,126010	
14,267000	0,66	2,147470	
14,278000	0,66	2,165990	
14,289000	0,66	2,178880	
14,300000	0,66	2,189970	
14,311000	0,66	2,196970	
14,322000	0,66	2,196240	
14,333000	0,66	2,190060	
14,344000	0,66	2,176990	
14,355000	0,66	2,157710	
14,366000	0,66	2,134400	
14,377000	0,66	2,105060	
14,388000	0,66	2,071250	
14,399000	0,66	2,037970	
14,410000	0,66	2,005060	
14,421000	0,66	1,971400	
14,432000	0,66	1,937970	
14,443000	0,66	1,901180	
14,454000	0,66	1,867970	
14,465000	0,66	1,838240	
14,476000	0,66	1,809000	
14,487000	0,66	1,785140	
14,498000	0,66	1,765920	
14,509000	0,66	1,751280	
14,520000	0,66	1,740240	
14,531000	0,66	1,733700	
14,542000	0,66	1,737300	
14,553000	0,66	1,753260	
14,564000	0,66	1,772740	
14,575000	0,66	1,804890	
14,586000	0,66	1,838110	
14,597000	0,66	1,867930	
14,608000	0,66	1,893830	
14,619000	0,66	1,903150	
14,630000	0,66	1,892920	
14,641000	0,66	1,868030	
14,652000	0,66	1,840190	
14,663000	0,66	1,803300	
14,674000	0,66	1,768550	
14,685000	0,66	1,742040	
14,696000	0,66	1,718730	
14,707000	0,66	1,695010	
14,718000	0,66	1,679550	
14,729000	0,66	1,668620	
14,740000	0,66	1,659760	
14,751000	0,66	1,654090	
14,762000	0,66	1,648370	
14,773000	0,66	1,641280	
14,784000	0,66	1,633010	
14,795000	0,66	1,628750	
14,806000	0,66	1,626120	
14,817000	0,66	1,623030	
14,828000	0,66	1,618670	
14,839000	0,66	1,614920	
14,850000	0,66	1,612050	
14,861000	0,66	1,609820	
14,872000	0,66	1,606050	
14,883000	0,66	1,605500	
14,894000	0,66	1,603110	
14,905000	0,66	1,605420	
14,916000	0,66	1,609330	
14,927000	0,66	1,614430	
14,938000	0,66	1,619600	
14,949000	0,66	1,624170	
14,960000	0,66	1,628560	
14,971000	0,66	1,631170	
14,982000	0,66	1,635720	
14,993000	0,66	1,639460	
15,004000	0,66	1,641720	
15,015000	0,66	1,640730	
15,026000	0,66	1,637010	
15,037000	0,66	1,635910	
15,048000	0,66	1,633500	
15,059000	0,66	1,631380	
15,070000	0,66	1,629850	
15,081000	0,66	1,626790	
15,092000	0,66	1,623770	
15,103000	0,66	1,621430	
15,114000	0,66	1,618560	
15,125000	0,66	1,617030	
15,136000	0,66	1,616510	
15,147000	0,66	1,616360	
15,158000	0,66	1,614350	
15,169000	0,66	1,612320	
15,180000	0,66	1,613440	
15,191000	0,66	1,610800	
15,202000	0,66	1,611130	
15,213000	0,66	1,612530	
15,224000	0,66	1,615500	
15,235000	0,66	1,616560	
15,246000	0,66	1,615990	
15,257000	0,66	1,616170	
15,268000	0,66	1,614450	
15,279000	0,66	1,612530	
15,290000	0,66	1,613980	
15,301000	0,66	1,618680	
15,312000	0,66	1,623520	
15,323000	0,66	1,633990	
15,334000	0,66	1,642490	
15,345000	0,66	1,653470	
15,356000	0,66	1,667660	
15,367000	0,66	1,684330	
15,378000	0,66	1,698300	
15,389000	0,66	1,710240	
15,400000	0,66	1,718760	
15,411000	0,66	1,719840	
15,422000	0,66	1,714060	
15,433000	0,66	1,703850	
15,444000	0,66	1,697310	
15,455000	0,66	1,690300	
15,466000	0,66	1,685380	
15,477000	0,66	1,681100	
15,488000	0,66	1,676460	
15,499000	0,66	1,675260	
15,510000	0,66	1,676200	
15,521000	0,66	1,674440	
15,532000	0,66	1,675590	
15,543000	0,66	1,676980	
15,554000	0,66	1,674340	
15,565000	0,66	1,674700	
15,576000	0,66	1,677040	
15,587000	0,66	1,679410	
15,598000	0,66	1,678610	
15,609000	0,66	1,677900	
15,620000	0,66	1,679560	
15,631000	0,66	1,684000	
15,642000	0,66	1,689710	
15,653000	0,66	1,693890	
15,664000	0,66	1,697990	
15,675000	0,66	1,703550	
15,686000	0,66	1,713910	
15,697000	0,66	1,726940	
15,708000	0,66	1,739340	
15,719000	0,66	1,759290	
15,730000	0,66	1,794000	
15,741000	0,66	1,844260	
15,752000	0,66	1,911340	
15,763000	0,66	1,992390	
15,774000	0,66	2,080010	
15,785000	0,66	2,168580	
15,796000	0,66	2,243290	
15,807000	0,66	2,295790	
15,818000	0,66	2,317670	
15,829000	0,66	2,310200	
15,840000	0,66	2,281930	
15,851000	0,66	2,240950	
15,862000	0,66	2,197640	
15,873000	0,66	2,155330	
15,884000	0,66	2,117100	
15,895000	0,66	2,084440	
15,906000	0,66	2,059400	
15,917000	0,66	2,037690	
15,928000	0,66	2,019900	
15,939000	0,66	2,008700	
15,950000	0,66	2,001220	
15,961000	0,66	2,002170	
15,972000	0,66	2,007000	
15,983000	0,66	2,014110	
15,994000	0,66	2,024340	
16,005000	0,66	2,039340	
16,016000	0,66	2,055460	
16,027000	0,66	2,072290	
16,038000	0,66	2,084840	
16,049000	0,66	2,098040	
16,060000	0,66	2,110710	
16,071000	0,66	2,123140	
16,082000	0,66	2,136060	
16,093000	0,66	2,149930	
16,104000	0,66	2,157610	
16,115000	0,66	2,162370	
16,126000	0,66	2,168380	
16,137000	0,66	2,172660	
16,148000	0,66	2,176220	
16,159000	0,66	2,179460	
16,170000	0,66	2,183510	
16,181000	0,66	2,187230	
16,192000	0,66	2,189920	
16,203000	0,66	2,196260	
16,214000	0,66	2,197430	
16,225000	0,66	2,198250	
16,236000	0,66	2,203760	
16,247000	0,66	2,210760	
16,258000	0,66	2,215060	
16,269000	0,66	2,221520	
16,280000	0,66	2,231530	
16,291000	0,66	2,241040	
16,302000	0,66	2,248970	
16,313000	0,66	2,255030	
16,324000	0,66	2,257290	
16,335000	0,66	2,259010	
16,346000	0,66	2,258910	
16,357000	0,66	2,258640	
16,368000	0,66	2,258520	
16,379000	0,66	2,260320	
16,390000	0,66	2,263230	
16,401000	0,66	2,264850	
16,412000	0,66	2,268050	
16,423000	0,66	2,272750	
16,434000	0,66	2,277540	
16,445000	0,66	2,280180	
16,456000	0,66	2,281620	
16,467000	0,66	2,285580	
16,478000	0,66	2,291020	
16,489000	0,66	2,296510	
16,500000	0,66	2,301900	
16,511000	0,66	2,308170	
16,522000	0,66	2,312650	
16,533000	0,66	2,316850	
16,544000	0,66	2,321690	
16,555000	0,66	2,323660	
16,566000	0,66	2,327580	
16,577000	0,66	2,332130	
16,588000	0,66	2,333620	
16,599000	0,66	2,336150	
16,610000	0,66	2,336260	
16,621000	0,66	2,338890	
16,632000	0,66	2,342030	
16,643000	0,66	2,343090	
16,654000	0,66	2,338830	
16,665000	0,66	2,336070	
16,676000	0,66	2,331970	
16,687000	0,66	2,326360	
16,698000	0,66	2,325040	
16,709000	0,66	2,325580	
16,720000	0,66	2,323690	
16,731000	0,66	2,322980	
16,742000	0,66	2,324750	
16,753000	0,66	2,324320	
16,764000	0,66	2,322510	
16,775000	0,66	2,321290	
16,786000	0,66	2,323970	
16,797000	0,66	2,324600	
16,808000	0,66	2,329090	
16,819000	0,66	2,330480	
16,830000	0,66	2,330420	
16,841000	0,66	2,333000	
16,852000	0,66	2,335570	
16,863000	0,66	2,336380	
16,874000	0,66	2,335630	
16,885000	0,66	2,339570	
16,896000	0,66	2,340740	
16,907000	0,66	2,345980	
16,918000	0,66	2,352960	
16,929000	0,66	2,356950	
16,940000	0,66	2,362780	
16,951000	0,66	2,369750	
16,962000	0,66	2,372700	
16,973000	0,66	2,376570	
16,984000	0,66	2,380740	
16,995000	0,66	2,383750	
17,006000	0,66	2,388840	
17,017000	0,66	2,395610	
17,028000	0,66	2,400940	
17,039000	0,66	2,403110	
17,050000	0,66	2,409680	
17,061000	0,66	2,417650	
17,072000	0,66	2,428040	
17,083000	0,66	2,439220	
17,094000	0,66	2,448430	
17,105000	0,66	2,457500	
17,116000	0,66	2,465910	
17,127000	0,66	2,475720	
17,138000	0,66	2,485040	
17,149000	0,66	2,496040	
17,160000	0,66	2,510280	
17,171000	0,66	2,523020	
17,182000	0,66	2,535460	
17,193000	0,66	2,548940	
17,204000	0,66	2,564300	
17,215000	0,66	2,578980	
17,226000	0,66	2,590440	
17,237000	0,66	2,603140	
17,248000	0,66	2,615440	
17,259000	0,66	2,630510	
17,270000	0,66	2,647600	
17,281000	0,66	2,664410	
17,292000	0,66	2,680550	
17,303000	0,66	2,696230	
17,314000	0,66	2,711580	
17,325000	0,66	2,727760	
17,336000	0,66	2,740670	
17,347000	0,66	2,749860	
17,358000	0,66	2,761000	
17,369000	0,66	2,773650	
17,380000	0,66	2,784650	
17,391000	0,66	2,793940	
17,402000	0,66	2,803630	
17,413000	0,66	2,814250	
17,424000	0,66	2,825350	
17,435000	0,66	2,837600	
17,446000	0,66	2,851020	
17,457000	0,66	2,863430	
17,468000	0,66	2,872520	
17,479000	0,66	2,884550	
17,490000	0,66	2,898710	
17,501000	0,66	2,908830	
17,512000	0,66	2,920080	
17,523000	0,66	2,933060	
17,534000	0,66	2,939940	
17,545000	0,66	2,945990	
17,556000	0,66	2,956490	
17,567000	0,66	2,965610	
17,578000	0,66	2,974070	
17,589000	0,66	2,980110	
17,600000	0,66	2,985060	
17,611000	0,66	2,991690	
17,622000	0,66	2,996150	
17,633000	0,66	3,001160	
17,644000	0,66	3,006930	
17,655000	0,66	3,010760	
17,666000	0,66	3,015570	
17,677000	0,66	3,022620	
17,688000	0,66	3,027240	
17,699000	0,66	3,030800	
17,710000	0,66	3,034410	
17,721000	0,66	3,038750	
17,732000	0,66	3,042190	
17,743000	0,66	3,047170	
17,754000	0,66	3,053010	
17,765000	0,66	3,056780	
17,776000	0,66	3,062290	
17,787000	0,66	3,072570	
17,798000	0,66	3,083640	
17,809000	0,66	3,095920	
17,820000	0,66	3,108500	
17,831000	0,66	3,119150	
17,842000	0,66	3,130720	
17,853000	0,66	3,141930	
17,864000	0,66	3,154080	
17,875000	0,66	3,168040	
17,886000	0,66	3,180420	
17,897000	0,66	3,186900	
17,908000	0,66	3,187130	
17,919000	0,66	3,187070	
17,930000	0,66	3,186520	
17,941000	0,66	3,183360	
17,952000	0,66	3,177800	
17,963000	0,66	3,175820	
17,974000	0,66	3,177890	
17,985000	0,66	3,179740	
17,996000	0,66	3,179700	
18,007000	0,66	3,182140	
18,018000	0,66	3,186710	
18,029000	0,66	3,195250	
18,040000	0,66	3,205210	
18,051000	0,66	3,215710	
18,062000	0,66	3,225530	
18,073000	0,66	3,237770	
18,084000	0,66	3,249620	
18,095000	0,66	3,253230	
18,106000	0,66	3,255230	
18,117000	0,66	3,258570	
18,128000	0,66	3,260680	
18,139000	0,66	3,264160	
18,150000	0,66	3,265070	
18,161000	0,66	3,267740	
18,172000	0,66	3,274120	
18,183000	0,66	3,280130	
18,194000	0,66	3,288790	
18,205000	0,66	3,297510	
18,216000	0,66	3,308650	
18,227000	0,66	3,320400	
18,238000	0,66	3,332860	
18,249000	0,66	3,343250	
18,260000	0,66	3,357110	
18,271000	0,66	3,367220	
18,282000	0,66	3,371910	
18,293000	0,66	3,369020	
18,304000	0,66	3,368840	
18,315000	0,66	3,366040	
18,326000	0,66	3,358370	
18,337000	0,66	3,347670	
18,348000	0,66	3,336110	
18,359000	0,66	3,323350	
18,370000	0,66	3,310650	
18,381000	0,66	3,299230	
18,392000	0,66	3,286580	
18,403000	0,66	3,272670	
18,414000	0,66	3,258310	
18,425000	0,66	3,240960	
18,436000	0,66	3,221220	
18,447000	0,66	3,199630	
18,458000	0,66	3,179150	
18,469000	0,66	3,160790	
18,480000	0,66	3,146940	
18,491000	0,66	3,133840	
18,502000	0,66	3,119040	
18,513000	0,66	3,103260	
18,524000	0,66	3,085470	
18,535000	0,66	3,068120	
18,546000	0,66	3,050060	
18,557000	0,66	3,032000	
18,568000	0,66	3,014970	
18,579000	0,66	2,996600	
18,590000	0,66	2,977940	
18,601000	0,66	2,960490	
18,612000	0,66	2,942220	
18,623000	0,66	2,923520	
18,634000	0,66	2,905360	
18,645000	0,66	2,888590	
18,656000	0,66	2,874730	
18,667000	0,66	2,863120	
18,678000	0,66	2,854340	
18,689000	0,66	2,844360	
18,700000	0,66	2,834320	
18,711000	0,66	2,825270	
18,722000	0,66	2,817370	
18,733000	0,66	2,813380	
18,744000	0,66	2,811780	
18,755000	0,66	2,812470	
18,766000	0,66	2,815550	
18,777000	0,66	2,824700	
18,788000	0,66	2,831290	
18,799000	0,66	2,838490	
18,810000	0,66	2,843780	
18,821000	0,66	2,842420	
18,832000	0,66	2,838100	
18,843000	0,66	2,824360	
18,854000	0,66	2,807600	
18,865000	0,66	2,785330	
18,876000	0,66	2,757510	
18,887000	0,66	2,730610	
18,898000	0,66	2,701300	
18,909000	0,66	2,674030	
18,920000	0,66	2,650180	
18,931000	0,66	2,626890	
18,942000	0,66	2,606800	
18,953000	0,66	2,587190	
18,964000	0,66	2,573990	
18,975000	0,66	2,554320	
18,986000	0,66	2,539610	
18,997000	0,66	2,528160	
19,008000	0,66	2,516010	
19,019000	0,66	2,503220	
19,030000	0,66	2,489870	
19,041000	0,66	2,475080	
19,052000	0,66	2,461810	
19,063000	0,66	2,449910	
19,074000	0,66	2,438260	
19,085000	0,66	2,424740	
19,096000	0,66	2,412250	
19,107000	0,66	2,399770	
19,118000	0,66	2,388640	
19,129000	0,66	2,379510	
19,140000	0,66	2,369680	
19,151000	0,66	2,359290	
19,162000	0,66	2,345030	
19,173000	0,66	2,330860	
19,184000	0,66	2,319060	
19,195000	0,66	2,305610	
19,206000	0,66	2,289170	
19,217000	0,66	2,272910	
19,228000	0,66	2,261940	
19,239000	0,66	2,250980	
19,250000	0,66	2,236080	
19,261000	0,66	2,224170	
19,272000	0,66	2,215020	
19,283000	0,66	2,202370	
19,294000	0,66	2,187830	
19,305000	0,66	2,175000	
19,316000	0,66	2,162840	
19,327000	0,66	2,150700	
19,338000	0,66	2,141030	
19,349000	0,66	2,130040	
19,360000	0,66	2,118400	
19,371000	0,66	2,106350	
19,382000	0,66	2,092560	
19,393000	0,66	2,080870	
19,404000	0,66	2,067520	
19,415000	0,66	2,053830	
19,426000	0,66	2,044970	
19,437000	0,66	2,035650	
19,448000	0,66	2,024380	
19,459000	0,66	2,014610	
19,470000	0,66	2,006370	
19,481000	0,66	1,997510	
19,492000	0,66	1,991500	
19,503000	0,66	1,985660	
19,514000	0,66	1,981470	
19,525000	0,66	1,978310	
19,536000	0,66	1,974130	
19,547000	0,66	1,967290	
19,558000	0,66	1,963990	
19,569000	0,66	1,963160	
19,580000	0,66	1,959010	
19,591000	0,66	1,953010	
19,602000	0,66	1,947850	
19,613000	0,66	1,942720	
19,624000	0,66	1,930860	
19,635000	0,66	1,918140	
19,646000	0,66	1,907610	
19,657000	0,66	1,899890	
19,668000	0,66	1,893190	
19,679000	0,66	1,884520	
19,690000	0,66	1,876210	
19,701000	0,66	1,865260	
19,712000	0,66	1,857710	
19,723000	0,66	1,851960	
19,734000	0,66	1,846220	
19,745000	0,66	1,839450	
19,756000	0,66	1,832810	
19,767000	0,66	1,824040	
19,778000	0,66	1,817550	
19,789000	0,66	1,815300	
19,800000	0,66	1,811300	
19,811000	0,66	1,806300	
19,822000	0,66	1,803790	
19,833000	0,66	1,800500	
19,844000	0,66	1,794900	
19,855000	0,66	1,791460	
19,866000	0,66	1,789060	
19,877000	0,66	1,785920	
19,888000	0,66	1,782650	
19,899000	0,66	1,780390	
19,910000	0,66	1,781020	
19,921000	0,66	1,783390	
19,932000	0,66	1,787310	
19,943000	0,66	1,790910	
19,954000	0,66	1,792090	
19,965000	0,66	1,793880	
19,976000	0,66	1,799100	
19,987000	0,66	1,806800	
19,998000	0,66	1,812140	
20,009000	0,66	1,817660	
20,020000	0,66	1,820070	
20,031000	0,66	1,822340	
20,042000	0,66	1,822800	
20,053000	0,66	1,820050	
20,064000	0,66	1,811890	
20,075000	0,66	1,802950	
20,086000	0,66	1,796160	
20,097000	0,66	1,790330	
20,108000	0,66	1,782750	
20,119000	0,66	1,773570	
20,130000	0,66	1,763910	
20,141000	0,66	1,759780	
20,152000	0,66	1,755340	
20,163000	0,66	1,759080	
20,174000	0,66	1,764310	
20,185000	0,66	1,774280	
20,196000	0,66	1,785180	
20,207000	0,66	1,798970	
20,218000	0,66	1,820540	
20,229000	0,66	1,849430	
20,240000	0,66	1,876710	
20,251000	0,66	1,905910	
20,262000	0,66	1,928620	
20,273000	0,66	1,943140	
20,284000	0,66	1,949410	
20,295000	0,66	1,948340	
20,306000	0,66	1,937230	
20,317000	0,66	1,916700	
20,328000	0,66	1,890740	
20,339000	0,66	1,863610	
20,350000	0,66	1,841100	
20,361000	0,66	1,823110	
20,372000	0,66	1,808620	
20,383000	0,66	1,791690	
20,394000	0,66	1,779570	
20,405000	0,66	1,769130	
20,416000	0,66	1,761430	
20,427000	0,66	1,751460	
20,438000	0,66	1,742540	
20,449000	0,66	1,735810	
20,460000	0,66	1,731640	
20,471000	0,66	1,726300	
20,482000	0,66	1,720870	
20,493000	0,66	1,715410	
20,504000	0,66	1,710410	
20,515000	0,66	1,708630	
20,526000	0,66	1,707070	
20,537000	0,66	1,707640	
20,548000	0,66	1,707890	
20,559000	0,66	1,706660	
20,570000	0,66	1,708960	
20,581000	0,66	1,714200	
20,592000	0,66	1,723940	
20,603000	0,66	1,735730	
20,614000	0,66	1,743990	
20,625000	0,66	1,751540	
20,636000	0,66	1,756220	
20,647000	0,66	1,754270	
20,658000	0,66	1,750400	
20,669000	0,66	1,748280	
20,680000	0,66	1,743540	
20,691000	0,66	1,734690	
20,702000	0,66	1,725630	
20,713000	0,66	1,716410	
20,724000	0,66	1,706740	
20,735000	0,66	1,696890	
20,746000	0,66	1,687560	
20,757000	0,66	1,684220	
20,768000	0,66	1,675280	
20,779000	0,66	1,667850	
20,790000	0,66	1,659670	
20,801000	0,66	1,653790	
20,812000	0,66	1,649960	
20,823000	0,66	1,641440	
20,834000	0,66	1,635900	
20,845000	0,66	1,634210	
20,856000	0,66	1,632050	
20,867000	0,66	1,630570	
20,878000	0,66	1,627430	
20,889000	0,66	1,625390	
20,900000	0,66	1,622050	
20,911000	0,66	1,619140	
20,922000	0,66	1,619310	
20,933000	0,66	1,617450	
20,944000	0,66	1,616200	
20,955000	0,66	1,612510	
20,966000	0,66	1,612290	
20,977000	0,66	1,614120	
20,988000	0,66	1,615050	
20,999000	0,66	1,613110	
21,010000	0,66	1,614240	
21,021000	0,66	1,615280	
21,032000	0,66	1,615880	
21,043000	0,66	1,614400	
21,054000	0,66	1,614490	
21,065000	0,66	1,617430	
21,076000	0,66	1,623170	
21,087000	0,66	1,630780	
21,098000	0,66	1,643780	
21,109000	0,66	1,658370	
21,120000	0,66	1,679270	
21,131000	0,66	1,707810	
21,142000	0,66	1,739090	
21,153000	0,66	1,771930	
21,164000	0,66	1,806590	
21,175000	0,66	1,840330	
21,186000	0,66	1,868270	
21,197000	0,66	1,891960	
21,208000	0,66	1,905320	
21,219000	0,66	1,910820	
21,230000	0,66	1,907760	
21,241000	0,66	1,895720	
21,252000	0,66	1,880990	
21,263000	0,66	1,864020	
21,274000	0,66	1,843310	
21,285000	0,66	1,823110	
21,296000	0,66	1,804890	
21,307000	0,66	1,785340	
21,318000	0,66	1,765980	
21,329000	0,66	1,750850	
21,340000	0,66	1,738990	
21,351000	0,66	1,725880	
21,362000	0,66	1,713370	
21,373000	0,66	1,702500	
21,384000	0,66	1,691840	
21,395000	0,66	1,681980	
21,406000	0,66	1,672790	
21,417000	0,66	1,664710	
21,428000	0,66	1,659350	
21,439000	0,66	1,656480	
21,450000	0,66	1,654320	
21,461000	0,66	1,650990	
21,472000	0,66	1,648490	
21,483000	0,66	1,647740	
21,494000	0,66	1,647370	
21,505000	0,66	1,643990	
21,516000	0,66	1,645540	
21,527000	0,66	1,644460	
21,538000	0,66	1,645830	
21,549000	0,66	1,646390	
21,560000	0,66	1,647730	
21,571000	0,66	1,652070	
21,582000	0,66	1,656880	
21,593000	0,66	1,664910	
21,604000	0,66	1,670610	
21,615000	0,66	1,672360	
21,626000	0,66	1,676480	
21,637000	0,66	1,674680	
21,648000	0,66	1,673510	
21,659000	0,66	1,673040	
21,670000	0,66	1,671390	
21,681000	0,66	1,672520	
21,692000	0,66	1,669730	
21,703000	0,66	1,670120	
21,714000	0,66	1,673630	
21,725000	0,66	1,677580	
21,736000	0,66	1,678960	
21,747000	0,66	1,682090	
21,758000	0,66	1,682260	
21,769000	0,66	1,682850	
21,780000	0,66	1,681200	
21,791000	0,66	1,681290	
21,802000	0,66	1,682710	
21,813000	0,66	1,679550	
21,824000	0,66	1,681150	
21,835000	0,66	1,685910	
21,846000	0,66	1,683610	
21,857000	0,66	1,682770	
21,868000	0,66	1,684490	
21,879000	0,66	1,688150	
21,890000	0,66	1,689570	
21,901000	0,66	1,692040	
21,912000	0,66	1,693260	
21,923000	0,66	1,694030	
21,934000	0,66	1,697030	
21,945000	0,66	1,698910	
21,956000	0,66	1,698920	
21,967000	0,66	1,700010	
21,978000	0,66	1,703570	
21,989000	0,66	1,706630	
22,000000	0,66	1,709180	
22,011000	0,66	1,713390	
22,022000	0,66	1,717500	
22,033000	0,66	1,723220	
22,044000	0,66	1,732060	
22,055000	0,66	1,741200	
22,066000	0,66	1,749170	
22,077000	0,66	1,755230	
22,088000	0,66	1,760870	
22,099000	0,66	1,765660	
22,110000	0,66	1,767240	
22,121000	0,66	1,764320	
22,132000	0,66	1,757390	
22,143000	0,66	1,749200	
22,154000	0,66	1,740650	
22,165000	0,66	1,730960	
22,176000	0,66	1,720890	
22,187000	0,66	1,714460	
22,198000	0,66	1,706930	
22,209000	0,66	1,703240	
22,220000	0,66	1,700220	
22,231000	0,66	1,697400	
22,242000	0,66	1,695300	
22,253000	0,66	1,695690	
22,264000	0,66	1,693490	
22,275000	0,66	1,695660	
22,286000	0,66	1,694490	
22,297000	0,66	1,691850	
22,308000	0,66	1,688100	
22,319000	0,66	1,685670	
22,330000	0,66	1,689580	
22,341000	0,66	1,691850	
22,352000	0,66	1,690360	
22,363000	0,66	1,689920	
22,374000	0,66	1,690420	
22,385000	0,66	1,690640	
22,396000	0,66	1,689290	
22,407000	0,66	1,686720	
22,418000	0,66	1,687470	
22,429000	0,66	1,685990	
22,440000	0,66	1,684030	
22,451000	0,66	1,684810	
22,462000	0,66	1,687990	
22,473000	0,66	1,692430	
22,484000	0,66	1,693260	
22,495000	0,66	1,691380	
22,506000	0,66	1,692710	
22,517000	0,66	1,692570	
22,528000	0,66	1,697510	
22,539000	0,66	1,699240	
22,550000	0,66	1,698320	
22,561000	0,66	1,697370	
22,572000	0,66	1,694220	
22,583000	0,66	1,693610	
22,594000	0,66	1,697370	
22,605000	0,66	1,697700	
22,616000	0,66	1,695940	
22,627000	0,66	1,695730	
22,638000	0,66	1,696560	
22,649000	0,66	1,698610	
22,660000	0,66	1,701060	
22,671000	0,66	1,706000	
22,682000	0,66	1,713860	
22,693000	0,66	1,724180	
22,704000	0,66	1,740170	
22,715000	0,66	1,762580	
22,726000	0,66	1,793810	
22,737000	0,66	1,835400	
22,748000	0,66	1,885670	
22,759000	0,66	1,946680	
22,770000	0,66	2,018740	
22,781000	0,66	2,097940	
22,792000	0,66	2,182760	
22,803000	0,66	2,273770	
22,814000	0,66	2,359600	
22,825000	0,66	2,439970	
22,836000	0,66	2,509610	
22,847000	0,66	2,556780	
22,858000	0,66	2,582410	
22,869000	0,66	2,580620	
22,880000	0,66	2,557790	
22,891000	0,66	2,515420	
22,902000	0,66	2,460410	
22,913000	0,66	2,400480	
22,924000	0,66	2,334470	
22,935000	0,66	2,274640	
22,946000	0,66	2,218680	
22,957000	0,66	2,169790	
22,968000	0,66	2,125540	
22,979000	0,66	2,088130	
22,990000	0,66	2,052830	
23,001000	0,66	2,016840	
23,012000	0,66	1,986420	
23,023000	0,66	1,958340	
23,034000	0,66	1,935930	
23,045000	0,66	1,912140	
23,056000	0,66	1,890840	
23,067000	0,66	1,877290	
23,078000	0,66	1,865250	
23,089000	0,66	1,853380	
23,100000	0,66	1,842980	
23,111000	0,66	1,836850	
23,122000	0,66	1,830980	
23,133000	0,66	1,829610	
23,144000	0,66	1,826160	
23,155000	0,66	1,822910	
23,166000	0,66	1,821860	
23,177000	0,66	1,818880	
23,188000	0,66	1,816440	
23,199000	0,66	1,814560	
23,210000	0,66	1,816740	
23,221000	0,66	1,812600	
23,232000	0,66	1,806510	
23,243000	0,66	1,803900	
23,254000	0,66	1,802160	
23,265000	0,66	1,800750	
23,276000	0,66	1,797750	
23,287000	0,66	1,795070	
23,298000	0,66	1,791920	
23,309000	0,66	1,789430	
23,320000	0,66	1,786170	
23,331000	0,66	1,780760	
23,342000	0,66	1,778010	
23,353000	0,66	1,775720	
23,364000	0,66	1,775070	
23,375000	0,66	1,776450	
23,386000	0,66	1,778060	
23,397000	0,66	1,780380	
23,408000	0,66	1,782890	
23,419000	0,66	1,786820	
23,430000	0,66	1,791120	
23,441000	0,66	1,794660	
23,452000	0,66	1,798200	
23,463000	0,66	1,803730	
23,474000	0,66	1,808360	
23,485000	0,66	1,814040	
23,496000	0,66	1,820420	
23,507000	0,66	1,823790	
23,518000	0,66	1,827670	
23,529000	0,66	1,832720	
23,540000	0,66	1,839270	
23,551000	0,66	1,842860	
23,562000	0,66	1,847970	
23,573000	0,66	1,851880	
23,584000	0,66	1,856270	
23,595000	0,66	1,862310	
23,606000	0,66	1,870320	
23,617000	0,66	1,878990	
23,628000	0,66	1,885990	
23,639000	0,66	1,895030	
23,650000	0,66	1,904540	
23,661000	0,66	1,916290	
23,672000	0,66	1,932410	
23,683000	0,66	1,953270	
23,694000	0,66	1,983140	
23,705000	0,66	2,023220	
23,716000	0,66	2,069740	
23,727000	0,66	2,126920	
23,738000	0,66	2,194340	
23,749000	0,66	2,270170	
23,760000	0,66	2,349530	
23,771000	0,66	2,441020	
23,782000	0,66	2,537360	
23,793000	0,66	2,635320	
23,804000	0,66	2,741090	
23,815000	0,66	2,846990	
23,826000	0,66	2,950080	
23,837000	0,66	3,050310	
23,848000	0,66	3,149360	
23,859000	0,66	3,255520	
23,870000	0,66	3,375780	
23,881000	0,66	3,520370	
23,892000	0,66	3,700600	
23,903000	0,66	3,920440	
23,914000	0,66	4,177310	
23,925000	0,66	4,453650	
23,936000	0,66	4,730640	
23,947000	0,66	4,987400	
23,958000	0,66	5,194410	
23,969000	0,66	5,337220	
23,980000	0,66	5,415670	
23,991000	0,66	5,429780	
24,002000	0,66	5,390610	
24,013000	0,66	5,321320	
24,024000	0,66	5,241690	
24,035000	0,66	5,165270	
24,046000	0,66	5,109190	
24,057000	0,66	5,089040	
24,068000	0,66	5,125030	
24,079000	0,66	5,257470	
24,090000	0,66	5,571240	
24,101000	0,66	6,316390	
24,112000	0,66	8,022500	
24,123000	0,66	11,485830	
24,134000	0,66	17,949230	
24,145000	0,66	29,125130	
24,156000	0,66	47,960830	
24,167000	0,66	79,487370	
24,178000	0,66	127,131980	
24,189000	0,66	187,330570	
24,200000	0,66	249,848760	
24,211000	0,66	305,721170	
24,222000	0,66	349,722520	
24,233000	0,66	380,644500	
24,244000	0,66	399,623260	
24,255000	0,66	408,547190	
24,266000	0,66	409,361220	
24,277000	0,66	403,907240	
24,288000	0,66	393,789470	
24,299000	0,66	380,125000	
24,310000	0,66	363,884540	
24,321000	0,66	345,947760	
24,332000	0,66	326,916880	
24,343000	0,66	307,277020	
24,354000	0,66	287,291290	
24,365000	0,66	267,346760	
24,376000	0,66	247,686410	
24,387000	0,66	228,518120	
24,398000	0,66	210,088830	
24,409000	0,66	192,491990	
24,420000	0,66	175,827060	
24,431000	0,66	160,303880	
24,442000	0,66	145,987300	
24,453000	0,66	132,994080	
24,464000	0,66	121,265530	
24,475000	0,66	110,743520	
24,486000	0,66	101,378110	
24,497000	0,66	93,035910	
24,508000	0,66	85,567880	
24,519000	0,66	78,796610	
24,530000	0,66	72,562090	
24,541000	0,66	66,741280	
24,552000	0,66	61,244790	
24,563000	0,66	56,031540	
24,574000	0,66	51,058890	
24,585000	0,66	46,319920	
24,596000	0,66	41,850930	
24,607000	0,66	37,685990	
24,618000	0,66	33,860690	
24,629000	0,66	30,379890	
24,640000	0,66	27,248780	
24,651000	0,66	24,469680	
24,662000	0,66	22,021480	
24,673000	0,66	19,886310	
24,684000	0,66	18,029250	
24,695000	0,66	16,423770	
24,706000	0,66	15,037270	
24,717000	0,66	13,848410	
24,728000	0,66	12,825990	
24,739000	0,66	11,949450	
24,750000	0,66	11,186650	
24,761000	0,66	10,521900	
24,772000	0,66	9,941420	
24,783000	0,66	9,432760	
24,794000	0,66	8,974430	
24,805000	0,66	8,548770	
24,816000	0,66	8,143450	
24,827000	0,66	7,753530	
24,838000	0,66	7,365170	
24,849000	0,66	6,976870	
24,860000	0,66	6,591060	
24,871000	0,66	6,214050	
24,882000	0,66	5,852430	
24,893000	0,66	5,512710	
24,904000	0,66	5,200260	
24,915000	0,66	4,923320	
24,926000	0,66	4,683730	
24,937000	0,66	4,475420	
24,948000	0,66	4,300760	
24,959000	0,66	4,155350	
24,970000	0,66	4,037850	
24,981000	0,66	3,941320	
24,992000	0,66	3,856580	
25,003000	0,66	3,781890	
25,014000	0,66	3,715400	
25,025000	0,66	3,654650	
25,036000	0,66	3,592140	
25,047000	0,66	3,532360	
25,058000	0,66	3,469690	
25,069000	0,66	3,405810	
25,080000	0,66	3,341000	
25,091000	0,66	3,275120	
25,102000	0,66	3,215130	
25,113000	0,66	3,155580	
25,124000	0,66	3,098390	
25,135000	0,66	3,047750	
25,146000	0,66	3,000680	
25,157000	0,66	2,958270	
25,168000	0,66	2,921430	
25,179000	0,66	2,893310	
25,190000	0,66	2,876680	
25,201000	0,66	2,870370	
25,212000	0,66	2,875990	
25,223000	0,66	2,895550	
25,234000	0,66	2,931070	
25,245000	0,66	2,976090	
25,256000	0,66	3,042320	
25,267000	0,66	3,124010	
25,278000	0,66	3,221100	
25,289000	0,66	3,332640	
25,300000	0,66	3,451810	
25,311000	0,66	3,576360	
25,322000	0,66	3,699850	
25,333000	0,66	3,811600	
25,344000	0,66	3,904880	
25,355000	0,66	3,969040	
25,366000	0,66	3,994990	
25,377000	0,66	3,984440	
25,388000	0,66	3,935130	
25,399000	0,66	3,852970	
25,410000	0,66	3,747370	
25,421000	0,66	3,623160	
25,432000	0,66	3,487780	
25,443000	0,66	3,349530	
25,454000	0,66	3,209920	
25,465000	0,66	3,074840	
25,476000	0,66	2,945800	
25,487000	0,66	2,822950	
25,498000	0,66	2,711570	
25,509000	0,66	2,613160	
25,520000	0,66	2,528040	
25,531000	0,66	2,455140	
25,542000	0,66	2,397270	
25,553000	0,66	2,350530	
25,564000	0,66	2,314510	
25,575000	0,66	2,280690	
25,586000	0,66	2,246260	
25,597000	0,66	2,217670	
25,608000	0,66	2,192660	
25,619000	0,66	2,167250	
25,630000	0,66	2,139200	
25,641000	0,66	2,105740	
25,652000	0,66	2,076740	
25,663000	0,66	2,048800	
25,674000	0,66	2,022290	
25,685000	0,66	1,992570	
25,696000	0,66	1,966790	
25,707000	0,66	1,948150	
25,718000	0,66	1,931460	
25,729000	0,66	1,917980	
25,740000	0,66	1,909290	
25,751000	0,66	1,897540	
25,762000	0,66	1,891530	
25,773000	0,66	1,890500	
25,784000	0,66	1,885250	
25,795000	0,66	1,880230	
25,806000	0,66	1,877130	
25,817000	0,66	1,871900	
25,828000	0,66	1,865350	
25,839000	0,66	1,862810	
25,850000	0,66	1,862240	
25,861000	0,66	1,857000	
25,872000	0,66	1,848910	
25,883000	0,66	1,841520	
25,894000	0,66	1,831360	
25,905000	0,66	1,824210	
25,916000	0,66	1,817080	
25,927000	0,66	1,807260	
25,938000	0,66	1,795710	
25,949000	0,66	1,787750	
25,960000	0,66	1,778700	
25,971000	0,66	1,771790	
25,982000	0,66	1,764430	
25,993000	0,66	1,757130	
26,004000	0,66	1,750810	
26,015000	0,66	1,742580	
26,026000	0,66	1,733940	
26,037000	0,66	1,728790	
26,048000	0,66	1,724960	
26,059000	0,66	1,723800	
26,070000	0,66	1,720540	
26,081000	0,66	1,718000	
26,092000	0,66	1,715950	
26,103000	0,66	1,714880	
26,114000	0,66	1,713450	
26,125000	0,66	1,711900	
26,136000	0,66	1,712770	
26,147000	0,66	1,715500	
26,158000	0,66	1,717160	
26,169000	0,66	1,717670	
26,180000	0,66	1,720070	
26,191000	0,66	1,727020	
26,202000	0,66	1,735190	
26,213000	0,66	1,740560	
26,224000	0,66	1,746100	
26,235000	0,66	1,750400	
26,246000	0,66	1,751970	
26,257000	0,66	1,750680	
26,268000	0,66	1,752520	
26,279000	0,66	1,754640	
26,290000	0,66	1,750200	
26,301000	0,66	1,745040	
26,312000	0,66	1,738690	
26,323000	0,66	1,729040	
26,334000	0,66	1,721420	
26,345000	0,66	1,708770	
26,356000	0,66	1,698330	
26,367000	0,66	1,688490	
26,378000	0,66	1,680740	
26,389000	0,66	1,675730	
26,400000	0,66	1,673820	
26,411000	0,66	1,672730	
26,422000	0,66	1,667650	
26,433000	0,66	1,666650	
26,444000	0,66	1,665050	
26,455000	0,66	1,664430	
26,466000	0,66	1,666060	
26,477000	0,66	1,665350	
26,488000	0,66	1,666320	
26,499000	0,66	1,668600	
26,510000	0,66	1,673740	
26,521000	0,66	1,678060	
26,532000	0,66	1,683230	
26,543000	0,66	1,684370	
26,554000	0,66	1,684280	
26,565000	0,66	1,686340	
26,576000	0,66	1,690800	
26,587000	0,66	1,693420	
26,598000	0,66	1,695080	
26,609000	0,66	1,690190	
26,620000	0,66	1,684600	
26,631000	0,66	1,678930	
26,642000	0,66	1,672830	
26,653000	0,66	1,667040	
26,664000	0,66	1,661050	
26,675000	0,66	1,652400	
26,686000	0,66	1,644840	
26,697000	0,66	1,635490	
26,708000	0,66	1,629610	
26,719000	0,66	1,624660	
26,730000	0,66	1,622480	
26,741000	0,66	1,621910	
26,752000	0,66	1,621620	
26,763000	0,66	1,620040	
26,774000	0,66	1,615850	
26,785000	0,66	1,616550	
26,796000	0,66	1,618160	
26,807000	0,66	1,614650	
26,818000	0,66	1,610580	
26,829000	0,66	1,608990	
26,840000	0,66	1,605370	
26,851000	0,66	1,601690	
26,862000	0,66	1,601670	
26,873000	0,66	1,602880	
26,884000	0,66	1,602230	
26,895000	0,66	1,598310	
26,906000	0,66	1,595920	
26,917000	0,66	1,600870	
26,928000	0,66	1,609270	
26,939000	0,66	1,613970	
26,950000	0,66	1,618380	
26,961000	0,66	1,624690	
26,972000	0,66	1,631880	
26,983000	0,66	1,641150	
26,994000	0,66	1,649600	
27,005000	0,66	1,656210	
27,016000	0,66	1,658590	
27,027000	0,66	1,659510	
27,038000	0,66	1,658320	
27,049000	0,66	1,656970	
27,060000	0,66	1,652900	
27,071000	0,66	1,650220	
27,082000	0,66	1,645080	
27,093000	0,66	1,635150	
27,104000	0,66	1,626510	
27,115000	0,66	1,617400	
27,126000	0,66	1,607800	
27,137000	0,66	1,602450	
27,148000	0,66	1,600910	
27,159000	0,66	1,600010	
27,170000	0,66	1,599920	
27,181000	0,66	1,598670	
27,192000	0,66	1,598760	
27,203000	0,66	1,598650	
27,214000	0,66	1,601460	
27,225000	0,66	1,603260	
27,236000	0,66	1,600990	
27,247000	0,66	1,600060	
27,258000	0,66	1,602530	
27,269000	0,66	1,603750	
27,280000	0,66	1,601250	
27,291000	0,66	1,597350	
27,302000	0,66	1,592990	
27,313000	0,66	1,587310	
27,324000	0,66	1,584350	
27,335000	0,66	1,583140	
27,346000	0,66	1,579260	
27,357000	0,66	1,573350	
27,368000	0,66	1,572020	
27,379000	0,66	1,572090	
27,390000	0,66	1,571740	
27,401000	0,66	1,572530	
27,412000	0,66	1,574150	
27,423000	0,66	1,571290	
27,434000	0,66	1,570240	
27,445000	0,66	1,571410	
27,456000	0,66	1,568680	
27,467000	0,66	1,567750	
27,478000	0,66	1,570400	
27,489000	0,66	1,571680	
27,500000	0,66	1,573550	
27,511000	0,66	1,573670	
27,522000	0,66	1,571820	
27,533000	0,66	1,574080	
27,544000	0,66	1,577210	
27,555000	0,66	1,577110	
27,566000	0,66	1,574720	
27,577000	0,66	1,573480	
27,588000	0,66	1,574010	
27,599000	0,66	1,574030	
27,610000	0,66	1,576490	
27,621000	0,66	1,577340	
27,632000	0,66	1,575270	
27,643000	0,66	1,574380	
27,654000	0,66	1,571050	
27,665000	0,66	1,567470	
27,676000	0,66	1,568150	
27,687000	0,66	1,564340	
27,698000	0,66	1,557750	
27,709000	0,66	1,556300	
27,720000	0,66	1,555630	
27,731000	0,66	1,552050	
27,742000	0,66	1,550400	
27,753000	0,66	1,553430	
27,764000	0,66	1,553660	
27,775000	0,66	1,550980	
27,786000	0,66	1,548730	
27,797000	0,66	1,549160	
27,808000	0,66	1,548690	
27,819000	0,66	1,551060	
27,830000	0,66	1,556390	
27,841000	0,66	1,559630	
27,852000	0,66	1,562150	
27,863000	0,66	1,561410	
27,874000	0,66	1,559610	
27,885000	0,66	1,562590	
27,896000	0,66	1,567230	
27,907000	0,66	1,567660	
27,918000	0,66	1,568020	
27,929000	0,66	1,569070	
27,940000	0,66	1,571110	
27,951000	0,66	1,573610	
27,962000	0,66	1,576510	
27,973000	0,66	1,577620	
27,984000	0,66	1,573300	
27,995000	0,66	1,571860	
28,006000	0,66	1,574460	
28,017000	0,66	1,571670	
28,028000	0,66	1,568520	
28,039000	0,66	1,568960	
28,050000	0,66	1,567210	
28,061000	0,66	1,566650	
28,072000	0,66	1,567170	
28,083000	0,66	1,569270	
28,094000	0,66	1,573450	
28,105000	0,66	1,576960	
28,116000	0,66	1,582120	
28,127000	0,66	1,585680	
28,138000	0,66	1,591880	
28,149000	0,66	1,598380	
28,160000	0,66	1,605560	
28,171000	0,66	1,608800	
28,182000	0,66	1,612330	
28,193000	0,66	1,619890	
28,204000	0,66	1,627690	
28,215000	0,66	1,633410	
28,226000	0,66	1,638920	
28,237000	0,66	1,644560	
28,248000	0,66	1,648790	
28,259000	0,66	1,654610	
28,270000	0,66	1,662930	
28,281000	0,66	1,672620	
28,292000	0,66	1,684220	
28,303000	0,66	1,696580	
28,314000	0,66	1,708370	
28,325000	0,66	1,722690	
28,336000	0,66	1,742800	
28,347000	0,66	1,762590	
28,358000	0,66	1,782470	
28,369000	0,66	1,804960	
28,380000	0,66	1,829850	
28,391000	0,66	1,857940	
28,402000	0,66	1,889180	
28,413000	0,66	1,922690	
28,424000	0,66	1,961480	
28,435000	0,66	2,001550	
28,446000	0,66	2,048770	
28,457000	0,66	2,101120	
28,468000	0,66	2,156140	
28,479000	0,66	2,213780	
28,490000	0,66	2,275340	
28,501000	0,66	2,341960	
28,512000	0,66	2,414030	
28,523000	0,66	2,493340	
28,534000	0,66	2,573860	
28,545000	0,66	2,659830	
28,556000	0,66	2,743200	
28,567000	0,66	2,822020	
28,578000	0,66	2,892720	
28,589000	0,66	2,956570	
28,600000	0,66	3,007200	
28,611000	0,66	3,044430	
28,622000	0,66	3,070850	
28,633000	0,66	3,090790	
28,644000	0,66	3,098530	
28,655000	0,66	3,106740	
28,666000	0,66	3,112890	
28,677000	0,66	3,121130	
28,688000	0,66	3,130480	
28,699000	0,66	3,147100	
28,710000	0,66	3,166780	
28,721000	0,66	3,191190	
28,732000	0,66	3,219080	
28,743000	0,66	3,246800	
28,754000	0,66	3,269510	
28,765000	0,66	3,291580	
28,776000	0,66	3,311510	
28,787000	0,66	3,327430	
28,798000	0,66	3,338000	
28,809000	0,66	3,342970	
28,820000	0,66	3,340640	
28,831000	0,66	3,332140	
28,842000	0,66	3,315330	
28,853000	0,66	3,290420	
28,864000	0,66	3,257510	
28,875000	0,66	3,219790	
28,886000	0,66	3,173180	
28,897000	0,66	3,118520	
28,908000	0,66	3,059030	
28,919000	0,66	2,995110	
28,930000	0,66	2,928370	
28,941000	0,66	2,862250	
28,952000	0,66	2,798340	
28,963000	0,66	2,738000	
28,974000	0,66	2,685180	
28,985000	0,66	2,638780	
28,996000	0,66	2,598490	
29,007000	0,66	2,564640	
29,018000	0,66	2,533280	
29,029000	0,66	2,505490	
29,040000	0,66	2,480830	
29,051000	0,66	2,456600	
29,062000	0,66	2,429550	
29,073000	0,66	2,400040	
29,084000	0,66	2,370290	
29,095000	0,66	2,343230	
29,106000	0,66	2,316260	
29,117000	0,66	2,286730	
29,128000	0,66	2,255260	
29,139000	0,66	2,229360	
29,150000	0,66	2,207180	
29,161000	0,66	2,183820	
29,172000	0,66	2,163060	
29,183000	0,66	2,143700	
29,194000	0,66	2,132300	
29,205000	0,66	2,118560	
29,216000	0,66	2,106280	
29,227000	0,66	2,096390	
29,238000	0,66	2,087500	
29,249000	0,66	2,081740	
29,260000	0,66	2,076590	
29,271000	0,66	2,071160	
29,282000	0,66	2,070140	
29,293000	0,66	2,064830	
29,304000	0,66	2,067710	
29,315000	0,66	2,078030	
29,326000	0,66	2,090030	
29,337000	0,66	2,100010	
29,348000	0,66	2,109940	
29,359000	0,66	2,124230	
29,370000	0,66	2,132450	
29,381000	0,66	2,139080	
29,392000	0,66	2,142220	
29,403000	0,66	2,144850	
29,414000	0,66	2,139840	
29,425000	0,66	2,131220	
29,436000	0,66	2,121230	
29,447000	0,66	2,108500	
29,458000	0,66	2,089370	
29,469000	0,66	2,067240	
29,480000	0,66	2,049440	
29,491000	0,66	2,031230	
29,502000	0,66	2,012390	
29,513000	0,66	1,990020	
29,524000	0,66	1,970010	
29,535000	0,66	1,958390	
29,546000	0,66	1,946540	
29,557000	0,66	1,934120	
29,568000	0,66	1,922870	
29,579000	0,66	1,915090	
29,590000	0,66	1,907800	
29,601000	0,66	1,899560	
29,612000	0,66	1,894000	
29,623000	0,66	1,889970	
29,634000	0,66	1,884780	
29,645000	0,66	1,880220	
29,656000	0,66	1,877470	
29,667000	0,66	1,876970	
29,678000	0,66	1,875530	
29,689000	0,66	1,871520	
29,700000	0,66	1,869820	
29,711000	0,66	1,867790	
29,722000	0,66	1,862470	
29,733000	0,66	1,858020	
29,744000	0,66	1,854370	
29,755000	0,66	1,851310	
29,766000	0,66	1,849040	
29,777000	0,66	1,844200	
29,788000	0,66	1,837760	
29,799000	0,66	1,834260	
29,810000	0,66	1,833040	
29,821000	0,66	1,831680	
29,832000	0,66	1,827710	
29,843000	0,66	1,826360	
29,854000	0,66	1,822950	
29,865000	0,66	1,818620	
29,876000	0,66	1,816820	
29,887000	0,66	1,815900	
29,898000	0,66	1,812680	
29,909000	0,66	1,812040	
29,920000	0,66	1,809690	
29,931000	0,66	1,807420	
29,942000	0,66	1,804490	
29,953000	0,66	1,804800	
29,964000	0,66	1,806090	
29,975000	0,66	1,803280	
29,986000	0,66	1,800590	
29,997000	0,66	1,797680	
30,008000	0,66	1,793770	
30,019000	0,66	1,791410	
30,030000	0,66	1,787270	
30,041000	0,66	1,785490	
30,052000	0,66	1,782540	
30,063000	0,66	1,778330	
30,074000	0,66	1,775130	
30,085000	0,66	1,773640	
30,096000	0,66	1,773220	
30,107000	0,66	1,771970	
30,118000	0,66	1,767520	
30,129000	0,66	1,768960	
30,140000	0,66	1,769760	
30,151000	0,66	1,770730	
30,162000	0,66	1,771590	
30,173000	0,66	1,776590	
30,184000	0,66	1,778620	
30,195000	0,66	1,779920	
30,206000	0,66	1,783880	
30,217000	0,66	1,786440	
30,228000	0,66	1,788730	
30,239000	0,66	1,790560	
30,250000	0,66	1,788690	
30,261000	0,66	1,785560	
30,272000	0,66	1,787030	
30,283000	0,66	1,789100	
30,294000	0,66	1,789290	
30,305000	0,66	1,788710	
30,316000	0,66	1,787400	
30,327000	0,66	1,786850	
30,338000	0,66	1,784250	
30,349000	0,66	1,782660	
30,360000	0,66	1,781680	
30,371000	0,66	1,778710	
30,382000	0,66	1,776340	
30,393000	0,66	1,772040	
30,404000	0,66	1,770730	
30,415000	0,66	1,774040	
30,426000	0,66	1,775140	
30,437000	0,66	1,773040	
30,448000	0,66	1,772700	
30,459000	0,66	1,773540	
30,470000	0,66	1,773080	
30,481000	0,66	1,773650	
30,492000	0,66	1,771870	
30,503000	0,66	1,770520	
30,514000	0,66	1,775130	
30,525000	0,66	1,777200	
30,536000	0,66	1,779540	
30,547000	0,66	1,780070	
30,558000	0,66	1,780180	
30,569000	0,66	1,781040	
30,580000	0,66	1,779860	
30,591000	0,66	1,780050	
30,602000	0,66	1,782040	
30,613000	0,66	1,784280	
30,624000	0,66	1,783560	
30,635000	0,66	1,780720	
30,646000	0,66	1,779130	
30,657000	0,66	1,776490	
30,668000	0,66	1,774340	
30,679000	0,66	1,773040	
30,690000	0,66	1,775270	
30,701000	0,66	1,777800	
30,712000	0,66	1,775720	
30,723000	0,66	1,774710	
30,734000	0,66	1,773720	
30,745000	0,66	1,771550	
30,756000	0,66	1,774040	
30,767000	0,66	1,774670	
30,778000	0,66	1,774580	
30,789000	0,66	1,778570	
30,800000	0,66	1,779830	
30,811000	0,66	1,779060	
30,822000	0,66	1,780950	
30,833000	0,66	1,782040	
30,844000	0,66	1,780470	
30,855000	0,66	1,779260	
30,866000	0,66	1,777850	
30,877000	0,66	1,774920	
30,888000	0,66	1,775450	
30,899000	0,66	1,777070	
30,910000	0,66	1,778090	
30,921000	0,66	1,779540	
30,932000	0,66	1,778940	
30,943000	0,66	1,775910	
30,954000	0,66	1,774810	
30,965000	0,66	1,774260	
30,976000	0,66	1,775030	
30,987000	0,66	1,774240	
30,998000	0,66	1,772770	
31,009000	0,66	1,774440	
31,020000	0,66	1,776790	
31,031000	0,66	1,776940	
31,042000	0,66	1,775690	
31,053000	0,66	1,773430	
31,064000	0,66	1,774170	
31,075000	0,66	1,777820	
31,086000	0,66	1,780370	
31,097000	0,66	1,781320	
31,108000	0,66	1,778540	
31,119000	0,66	1,775400	
31,130000	0,66	1,773960	
31,141000	0,66	1,773450	
31,152000	0,66	1,775620	
31,163000	0,66	1,777890	
31,174000	0,66	1,776280	
31,185000	0,66	1,772530	
31,196000	0,66	1,773010	
31,207000	0,66	1,775110	
31,218000	0,66	1,773890	
31,229000	0,66	1,771550	
31,240000	0,66	1,770830	
31,251000	0,66	1,772570	
31,262000	0,66	1,774410	
31,273000	0,66	1,774880	
31,284000	0,66	1,774080	
31,295000	0,66	1,771680	
31,306000	0,66	1,766960	
31,317000	0,66	1,763820	
31,328000	0,66	1,766100	
31,339000	0,66	1,768730	
31,350000	0,66	1,766760	
31,361000	0,66	1,767600	
31,372000	0,66	1,769480	
31,383000	0,66	1,769200	
31,394000	0,66	1,771150	
31,405000	0,66	1,772060	
31,416000	0,66	1,770190	
31,427000	0,66	1,770410	
31,438000	0,66	1,770700	
31,449000	0,66	1,770550	
31,460000	0,66	1,771870	
31,471000	0,66	1,773330	
31,482000	0,66	1,772390	
31,493000	0,66	1,767740	
31,504000	0,66	1,770390	
31,515000	0,66	1,773400	
31,526000	0,66	1,771430	
31,537000	0,66	1,770540	
31,548000	0,66	1,772310	
31,559000	0,66	1,772690	
31,570000	0,66	1,772340	
31,581000	0,66	1,773020	
31,592000	0,66	1,771150	
31,603000	0,66	1,769050	
31,614000	0,66	1,767950	
31,625000	0,66	1,768660	
31,636000	0,66	1,766460	
31,647000	0,66	1,763800	
31,658000	0,66	1,765230	
31,669000	0,66	1,767260	
31,680000	0,66	1,766930	
31,691000	0,66	1,761930	
31,702000	0,66	1,761400	
31,713000	0,66	1,762780	
31,724000	0,66	1,759990	
31,735000	0,66	1,758440	
31,746000	0,66	1,755980	
31,757000	0,66	1,752770	
31,768000	0,66	1,753510	
31,779000	0,66	1,754780	
31,790000	0,66	1,754310	
31,801000	0,66	1,754000	
31,812000	0,66	1,755700	
31,823000	0,66	1,759050	
31,834000	0,66	1,757770	
31,845000	0,66	1,754120	
31,856000	0,66	1,753140	
31,867000	0,66	1,752100	
31,878000	0,66	1,752360	
31,889000	0,66	1,752570	
31,900000	0,66	1,752880	
31,911000	0,66	1,750840	
31,922000	0,66	1,751430	
31,933000	0,66	1,750550	
31,944000	0,66	1,750530	
31,955000	0,66	1,749920	
31,966000	0,66	1,751210	
31,977000	0,66	1,749210	
31,988000	0,66	1,746510	
31,999000	0,66	1,745430	
32,010000	0,66	1,745710	
32,021000	0,66	1,745920	
32,032000	0,66	1,748430	
32,043000	0,66	1,745380	
32,054000	0,66	1,743780	
32,065000	0,66	1,742380	
32,076000	0,66	1,742780	
32,087000	0,66	1,741490	
32,098000	0,66	1,741270	
32,109000	0,66	1,743080	
32,120000	0,66	1,741980	
32,131000	0,66	1,742380	
32,142000	0,66	1,740730	
32,153000	0,66	1,740010	
32,164000	0,66	1,738200	
32,175000	0,66	1,737020	
32,186000	0,66	1,736960	
32,197000	0,66	1,737550	
32,208000	0,66	1,740010	
32,219000	0,66	1,738470	
32,230000	0,66	1,736730	
32,241000	0,66	1,737370	
32,252000	0,66	1,737230	
32,263000	0,66	1,735760	
32,274000	0,66	1,733470	
32,285000	0,66	1,732170	
32,296000	0,66	1,730420	
32,307000	0,66	1,730140	
32,318000	0,66	1,731280	
32,329000	0,66	1,731590	
32,340000	0,66	1,729830	
32,351000	0,66	1,729370	
32,362000	0,66	1,726860	
32,373000	0,66	1,724140	
32,384000	0,66	1,724990	
32,395000	0,66	1,727000	
32,406000	0,66	1,727650	
32,417000	0,66	1,725930	
32,428000	0,66	1,724720	
32,439000	0,66	1,726530	
32,450000	0,66	1,728020	
32,461000	0,66	1,727590	
32,472000	0,66	1,726280	
32,483000	0,66	1,726340	
32,494000	0,66	1,728330	
32,505000	0,66	1,728800	
32,516000	0,66	1,729490	
32,527000	0,66	1,729670	
32,538000	0,66	1,727380	
32,549000	0,66	1,725700	
32,560000	0,66	1,725710	
32,571000	0,66	1,726320	
32,582000	0,66	1,724420	
32,593000	0,66	1,721190	
32,604000	0,66	1,718080	
32,615000	0,66	1,716330	
32,626000	0,66	1,716820	
32,637000	0,66	1,720340	
32,648000	0,66	1,718930	
32,659000	0,66	1,716690	
32,670000	0,66	1,717530	
32,681000	0,66	1,721550	
32,692000	0,66	1,723790	
32,703000	0,66	1,725450	
32,714000	0,66	1,724450	
32,725000	0,66	1,722870	
32,736000	0,66	1,720470	
32,747000	0,66	1,721440	
32,758000	0,66	1,718080	
32,769000	0,66	1,715940	
32,780000	0,66	1,717850	
32,791000	0,66	1,718960	
32,802000	0,66	1,720520	
32,813000	0,66	1,716980	
32,824000	0,66	1,715040	
32,835000	0,66	1,711570	
32,846000	0,66	1,715090	
32,857000	0,66	1,720160	
32,868000	0,66	1,720710	
32,879000	0,66	1,720730	
32,890000	0,66	1,720630	
32,901000	0,66	1,719780	
32,912000	0,66	1,719630	
32,923000	0,66	1,720800	
32,934000	0,66	1,720460	
32,945000	0,66	1,720560	
32,956000	0,66	1,719600	
32,967000	0,66	1,718130	
32,978000	0,66	1,717330	
32,989000	0,66	1,720660	
33,000000	0,66	1,722500	
33,011000	0,66	1,722700	
33,022000	0,66	1,721920	
33,033000	0,66	1,719090	
33,044000	0,66	1,717460	
33,055000	0,66	1,715750	
33,066000	0,66	1,712160	
33,077000	0,66	1,711460	
33,088000	0,66	1,714070	
33,099000	0,66	1,716850	
33,110000	0,66	1,717600	
33,121000	0,66	1,717870	
33,132000	0,66	1,718600	
33,143000	0,66	1,719060	
33,154000	0,66	1,720840	
33,165000	0,66	1,721000	
33,176000	0,66	1,718830	
33,187000	0,66	1,719420	
33,198000	0,66	1,721670	
33,209000	0,66	1,723780	
33,220000	0,66	1,725140	
33,231000	0,66	1,724530	
33,242000	0,66	1,724680	
33,253000	0,66	1,725660	
33,264000	0,66	1,728490	
33,275000	0,66	1,730380	
33,286000	0,66	1,728700	
33,297000	0,66	1,727620	
33,308000	0,66	1,728010	
33,319000	0,66	1,727790	
33,330000	0,66	1,729590	
33,341000	0,66	1,731660	
33,352000	0,66	1,731770	
33,363000	0,66	1,734030	
33,374000	0,66	1,736700	
33,385000	0,66	1,737500	
33,396000	0,66	1,738030	
33,407000	0,66	1,739070	
33,418000	0,66	1,741170	
33,429000	0,66	1,745620	
33,440000	0,66	1,746060	
33,451000	0,66	1,743530	
33,462000	0,66	1,743630	
33,473000	0,66	1,745140	
33,484000	0,66	1,746150	
33,495000	0,66	1,748120	
33,506000	0,66	1,748390	
33,517000	0,66	1,747690	
33,528000	0,66	1,750070	
33,539000	0,66	1,751500	
33,550000	0,66	1,751640	
33,561000	0,66	1,751580	
33,572000	0,66	1,751330	
33,583000	0,66	1,750420	
33,594000	0,66	1,751010	
33,605000	0,66	1,748610	
33,616000	0,66	1,747070	
33,627000	0,66	1,747460	
33,638000	0,66	1,746410	
33,649000	0,66	1,748350	
33,660000	0,66	1,752670	
33,671000	0,66	1,756370	
33,682000	0,66	1,753810	
33,693000	0,66	1,750090	
33,704000	0,66	1,749480	
33,715000	0,66	1,748950	
33,726000	0,66	1,749980	
33,737000	0,66	1,751050	
33,748000	0,66	1,752710	
33,759000	0,66	1,754010	
33,770000	0,66	1,754730	
33,781000	0,66	1,754270	
33,792000	0,66	1,754390	
33,803000	0,66	1,756160	
33,814000	0,66	1,757430	
33,825000	0,66	1,757530	
33,836000	0,66	1,755340	
33,847000	0,66	1,751620	
33,858000	0,66	1,748200	
33,869000	0,66	1,747060	
33,880000	0,66	1,748570	
33,891000	0,66	1,750510	
33,902000	0,66	1,752150	
33,913000	0,66	1,751260	
33,924000	0,66	1,750750	
33,935000	0,66	1,752160	
33,946000	0,66	1,756410	
33,957000	0,66	1,755310	
33,968000	0,66	1,753950	
33,979000	0,66	1,756010	
33,990000	0,66	1,756210	
34,001000	0,66	1,752860	
34,012000	0,66	1,747540	
34,023000	0,66	1,746880	
34,034000	0,66	1,746710	
34,045000	0,66	1,745170	
34,056000	0,66	1,746450	
34,067000	0,66	1,747150	
34,078000	0,66	1,745700	
34,089000	0,66	1,749190	
34,100000	0,66	1,752480	
34,111000	0,66	1,752690	
34,122000	0,66	1,749040	
34,133000	0,66	1,748740	
34,144000	0,66	1,748700	
34,155000	0,66	1,748480	
34,166000	0,66	1,746190	
34,177000	0,66	1,749580	
34,188000	0,66	1,750360	
34,199000	0,66	1,749490	
34,210000	0,66	1,748980	
34,221000	0,66	1,748030	
34,232000	0,66	1,747360	
34,243000	0,66	1,744200	
34,254000	0,66	1,748560	
34,265000	0,66	1,748160	
34,276000	0,66	1,751060	
34,287000	0,66	1,749510	
34,298000	0,66	1,751950	
34,309000	0,66	1,752530	
34,320000	0,66	1,751290	
34,331000	0,66	1,751700	
34,342000	0,66	1,752240	
34,353000	0,66	1,752000	
34,364000	0,66	1,751810	
34,375000	0,66	1,753090	
34,386000	0,66	1,754560	
34,397000	0,66	1,750510	
34,408000	0,66	1,749420	
34,419000	0,66	1,749160	
34,430000	0,66	1,752250	
34,441000	0,66	1,756020	
34,452000	0,66	1,754850	
34,463000	0,66	1,755760	
34,474000	0,66	1,754230	
34,485000	0,66	1,753780	
34,496000	0,66	1,755520	
34,507000	0,66	1,755280	
34,518000	0,66	1,754470	
34,529000	0,66	1,753890	
34,540000	0,66	1,750990	
34,551000	0,66	1,749810	
34,562000	0,66	1,751510	
34,573000	0,66	1,753350	
34,584000	0,66	1,755470	
34,595000	0,66	1,755000	
34,606000	0,66	1,755530	
34,617000	0,66	1,756220	
34,628000	0,66	1,757830	
34,639000	0,66	1,756250	
34,650000	0,66	1,752470	
34,661000	0,66	1,754590	
34,672000	0,66	1,757260	
34,683000	0,66	1,759930	
34,694000	0,66	1,762020	
34,705000	0,66	1,762260	
34,716000	0,66	1,765480	
34,727000	0,66	1,765950	
34,738000	0,66	1,764890	
34,749000	0,66	1,763170	
34,760000	0,66	1,765430	
34,771000	0,66	1,764330	
34,782000	0,66	1,762510	
34,793000	0,66	1,762500	
34,804000	0,66	1,761290	
34,815000	0,66	1,759430	
34,826000	0,66	1,762020	
34,837000	0,66	1,763490	
34,848000	0,66	1,763210	
34,859000	0,66	1,766170	
34,870000	0,66	1,768270	
34,881000	0,66	1,767260	
34,892000	0,66	1,767400	
34,903000	0,66	1,767900	
34,914000	0,66	1,766720	
34,925000	0,66	1,768650	
34,936000	0,66	1,768590	
34,947000	0,66	1,769680	
34,958000	0,66	1,768050	
34,969000	0,66	1,767740	
34,980000	0,66	1,765680	
34,991000	0,66	1,767040	
35,002000	0,66	1,766090	
35,013000	0,66	1,769300	
35,024000	0,66	1,772890	
35,035000	0,66	1,773990	
35,046000	0,66	1,775200	
35,057000	0,66	1,776560	
35,068000	0,66	1,775030	
35,079000	0,66	1,777120	
35,090000	0,66	1,778250	
35,101000	0,66	1,779710	
35,112000	0,66	1,781580	
35,123000	0,66	1,782860	
35,134000	0,66	1,782930	
35,145000	0,66	1,783180	
35,156000	0,66	1,784610	
35,167000	0,66	1,781180	
35,178000	0,66	1,777780	
35,189000	0,66	1,780260	
35,200000	0,66	1,783770	
35,211000	0,66	1,787130	
35,222000	0,66	1,788700	
35,233000	0,66	1,786620	
35,244000	0,66	1,786040	
35,255000	0,66	1,787770	
35,266000	0,66	1,787670	
35,277000	0,66	1,786790	
35,288000	0,66	1,786410	
35,299000	0,66	1,785740	
35,310000	0,66	1,785740	
35,321000	0,66	1,787290	
35,332000	0,66	1,790590	
35,343000	0,66	1,791840	
35,354000	0,66	1,793100	
35,365000	0,66	1,797080	
35,376000	0,66	1,798850	
35,387000	0,66	1,798180	
35,398000	0,66	1,798070	
35,409000	0,66	1,793870	
35,420000	0,66	1,796590	
35,431000	0,66	1,801510	
35,442000	0,66	1,803200	
35,453000	0,66	1,804150	
35,464000	0,66	1,805650	
35,475000	0,66	1,805950	
35,486000	0,66	1,804010	
35,497000	0,66	1,802370	
35,508000	0,66	1,802090	
35,519000	0,66	1,801720	
35,530000	0,66	1,802890	
35,541000	0,66	1,804570	
35,552000	0,66	1,804700	
35,563000	0,66	1,802740	
35,574000	0,66	1,802100	
35,585000	0,66	1,802250	
35,596000	0,66	1,803920	
35,607000	0,66	1,807010	
35,618000	0,66	1,810680	
35,629000	0,66	1,811740	
35,640000	0,66	1,813450	
35,651000	0,66	1,811350	
35,662000	0,66	1,809300	
35,673000	0,66	1,808510	
35,684000	0,66	1,808050	
35,695000	0,66	1,808440	
35,706000	0,66	1,811560	
35,717000	0,66	1,811850	
35,728000	0,66	1,811040	
35,739000	0,66	1,809560	
35,750000	0,66	1,811810	
35,761000	0,66	1,816310	
35,772000	0,66	1,817690	
35,783000	0,66	1,816800	
35,794000	0,66	1,816560	
35,805000	0,66	1,818820	
35,816000	0,66	1,818720	
35,827000	0,66	1,820950	
35,838000	0,66	1,821400	
35,849000	0,66	1,820210	
35,860000	0,66	1,820180	
35,871000	0,66	1,821410	
35,882000	0,66	1,821660	
35,893000	0,66	1,819650	
35,904000	0,66	1,816830	
35,915000	0,66	1,817870	
35,926000	0,66	1,822380	
35,937000	0,66	1,823530	
35,948000	0,66	1,824070	
35,959000	0,66	1,826830	
35,970000	0,66	1,829380	
35,981000	0,66	1,831610	
35,992000	0,66	1,833380	
36,003000	0,66	1,833830	
36,014000	0,66	1,832360	
36,025000	0,66	1,833250	
36,036000	0,66	1,833450	
36,047000	0,66	1,835710	
36,058000	0,66	1,837950	
36,069000	0,66	1,837170	
36,080000	0,66	1,836940	
36,091000	0,66	1,839200	
36,102000	0,66	1,840730	
36,113000	0,66	1,841150	
36,124000	0,66	1,843030	
36,135000	0,66	1,844660	
36,146000	0,66	1,843700	
36,157000	0,66	1,841980	
36,168000	0,66	1,843710	
36,179000	0,66	1,847330	
36,190000	0,66	1,849450	
36,201000	0,66	1,852250	
36,212000	0,66	1,856590	
36,223000	0,66	1,858650	
36,234000	0,66	1,861660	
36,245000	0,66	1,865950	
36,256000	0,66	1,870880	
36,267000	0,66	1,871880	
36,278000	0,66	1,871690	
36,289000	0,66	1,871820	
36,300000	0,66	1,876870	
36,311000	0,66	1,880670	
36,322000	0,66	1,884130	
36,333000	0,66	1,884400	
36,344000	0,66	1,884640	
36,355000	0,66	1,884970	
36,366000	0,66	1,891350	
36,377000	0,66	1,895080	
36,388000	0,66	1,897510	
36,399000	0,66	1,900980	
36,410000	0,66	1,907040	
36,421000	0,66	1,914820	
36,432000	0,66	1,921670	
36,443000	0,66	1,928970	
36,454000	0,66	1,936560	
36,465000	0,66	1,942400	
36,476000	0,66	1,947300	
36,487000	0,66	1,949770	
36,498000	0,66	1,951990	
36,509000	0,66	1,951070	
36,520000	0,66	1,953950	
36,531000	0,66	1,959460	
36,542000	0,66	1,961030	
36,553000	0,66	1,959040	
36,564000	0,66	1,956010	
36,575000	0,66	1,952470	
36,586000	0,66	1,953690	
36,597000	0,66	1,956140	
36,608000	0,66	1,953320	
36,619000	0,66	1,950030	
36,630000	0,66	1,948480	
36,641000	0,66	1,946760	
36,652000	0,66	1,945890	
36,663000	0,66	1,942930	
36,674000	0,66	1,936880	
36,685000	0,66	1,934430	
36,696000	0,66	1,932950	
36,707000	0,66	1,931360	
36,718000	0,66	1,931310	
36,729000	0,66	1,929970	
36,740000	0,66	1,930220	
36,751000	0,66	1,929620	
36,762000	0,66	1,929450	
36,773000	0,66	1,929730	
36,784000	0,66	1,930080	
36,795000	0,66	1,932230	
36,806000	0,66	1,931380	
36,817000	0,66	1,926600	
36,828000	0,66	1,927820	
36,839000	0,66	1,934310	
36,850000	0,66	1,936860	
36,861000	0,66	1,936570	
36,872000	0,66	1,938170	
36,883000	0,66	1,944090	
36,894000	0,66	1,948150	
36,905000	0,66	1,948220	
36,916000	0,66	1,949000	
36,927000	0,66	1,951660	
36,938000	0,66	1,953850	
36,949000	0,66	1,956860	
36,960000	0,66	1,957360	
36,971000	0,66	1,959240	
36,982000	0,66	1,960690	
36,993000	0,66	1,964510	
37,004000	0,66	1,967590	
37,015000	0,66	1,974830	
37,026000	0,66	1,980670	
37,037000	0,66	1,982450	
37,048000	0,66	1,983010	
37,059000	0,66	1,985110	
37,070000	0,66	1,987900	
37,081000	0,66	1,990320	
37,092000	0,66	1,995590	
37,103000	0,66	1,999820	
37,114000	0,66	2,003740	
37,125000	0,66	2,007760	
37,136000	0,66	2,013720	
37,147000	0,66	2,017790	
37,158000	0,66	2,020870	
37,169000	0,66	2,025930	
37,180000	0,66	2,032450	
37,191000	0,66	2,034220	
37,202000	0,66	2,035720	
37,213000	0,66	2,041750	
37,224000	0,66	2,045240	
37,235000	0,66	2,051820	
37,246000	0,66	2,057630	
37,257000	0,66	2,059330	
37,268000	0,66	2,063030	
37,279000	0,66	2,072200	
37,290000	0,66	2,080380	
37,301000	0,66	2,084450	
37,312000	0,66	2,090500	
37,323000	0,66	2,096750	
37,334000	0,66	2,103130	
37,345000	0,66	2,109910	
37,356000	0,66	2,113740	
37,367000	0,66	2,118390	
37,378000	0,66	2,125890	
37,389000	0,66	2,135140	
37,400000	0,66	2,142470	
37,411000	0,66	2,148340	
37,422000	0,66	2,154790	
37,433000	0,66	2,163220	
37,444000	0,66	2,172120	
37,455000	0,66	2,177510	
37,466000	0,66	2,182000	
37,477000	0,66	2,189180	
37,488000	0,66	2,196730	
37,499000	0,66	2,201110	
37,510000	0,66	2,205820	
37,521000	0,66	2,215040	
37,532000	0,66	2,224640	
37,543000	0,66	2,230170	
37,554000	0,66	2,239030	
37,565000	0,66	2,248170	
37,576000	0,66	2,255610	
37,587000	0,66	2,262440	
37,598000	0,66	2,270620	
37,609000	0,66	2,279320	
37,620000	0,66	2,284310	
37,631000	0,66	2,291710	
37,642000	0,66	2,301190	
37,653000	0,66	2,312220	
37,664000	0,66	2,318580	
37,675000	0,66	2,327230	
37,686000	0,66	2,336590	
37,697000	0,66	2,344460	
37,708000	0,66	2,350170	
37,719000	0,66	2,356470	
37,730000	0,66	2,362960	
37,741000	0,66	2,371620	
37,752000	0,66	2,376820	
37,763000	0,66	2,384630	
37,774000	0,66	2,393650	
37,785000	0,66	2,402480	
37,796000	0,66	2,411220	
37,807000	0,66	2,417580	
37,818000	0,66	2,425910	
37,829000	0,66	2,433020	
37,840000	0,66	2,441040	
37,851000	0,66	2,449390	
37,862000	0,66	2,458050	
37,873000	0,66	2,463200	
37,884000	0,66	2,466380	
37,895000	0,66	2,472540	
37,906000	0,66	2,478630	
37,917000	0,66	2,484010	
37,928000	0,66	2,490810	
37,939000	0,66	2,498270	
37,950000	0,66	2,504450	
37,961000	0,66	2,512420	
37,972000	0,66	2,520280	
37,983000	0,66	2,526440	
37,994000	0,66	2,532490	
38,005000	0,66	2,539950	
38,016000	0,66	2,549010	
38,027000	0,66	2,558580	
38,038000	0,66	2,567950	
38,049000	0,66	2,574740	
38,060000	0,66	2,578460	
38,071000	0,66	2,584140	
38,082000	0,66	2,593330	
38,093000	0,66	2,602360	
38,104000	0,66	2,613240	
38,115000	0,66	2,622920	
38,126000	0,66	2,632410	
38,137000	0,66	2,643790	
38,148000	0,66	2,653090	
38,159000	0,66	2,663250	
38,170000	0,66	2,673920	
38,181000	0,66	2,682720	
38,192000	0,66	2,693340	
38,203000	0,66	2,706070	
38,214000	0,66	2,720270	
38,225000	0,66	2,737700	
38,236000	0,66	2,754780	
38,247000	0,66	2,766680	
38,258000	0,66	2,779590	
38,269000	0,66	2,793700	
38,280000	0,66	2,806120	
38,291000	0,66	2,823530	
38,302000	0,66	2,841280	
38,313000	0,66	2,858700	
38,324000	0,66	2,876500	
38,335000	0,66	2,895570	
38,346000	0,66	2,921800	
38,357000	0,66	2,948230	
38,368000	0,66	2,974350	
38,379000	0,66	3,001820	
38,390000	0,66	3,027560	
38,401000	0,66	3,050400	
38,412000	0,66	3,063440	
38,423000	0,66	3,077500	
38,434000	0,66	3,091240	
38,445000	0,66	3,093720	
38,456000	0,66	3,091440	
38,467000	0,66	3,089710	
38,478000	0,66	3,088040	
38,489000	0,66	3,088740	
38,500000	0,66	3,085360	
38,511000	0,66	3,083530	
38,522000	0,66	3,084090	
38,533000	0,66	3,083160	
38,544000	0,66	3,083190	
38,555000	0,66	3,088200	
38,566000	0,66	3,094420	
38,577000	0,66	3,099760	
38,588000	0,66	3,106170	
38,599000	0,66	3,112580	
38,610000	0,66	3,119840	
38,621000	0,66	3,125950	
38,632000	0,66	3,133050	
38,643000	0,66	3,138690	
38,654000	0,66	3,144380	
38,665000	0,66	3,146540	
38,676000	0,66	3,149030	
38,687000	0,66	3,153770	
38,698000	0,66	3,157400	
38,709000	0,66	3,159460	
38,720000	0,66	3,160000	
38,731000	0,66	3,162840	
38,742000	0,66	3,168050	
38,753000	0,66	3,169560	
38,764000	0,66	3,170380	
38,775000	0,66	3,174120	
38,786000	0,66	3,175540	
38,797000	0,66	3,175880	
38,808000	0,66	3,176430	
38,819000	0,66	3,177650	
38,830000	0,66	3,177560	
38,841000	0,66	3,177640	
38,852000	0,66	3,177990	
38,863000	0,66	3,180630	
38,874000	0,66	3,181850	
38,885000	0,66	3,181650	
38,896000	0,66	3,183340	
38,907000	0,66	3,188340	
38,918000	0,66	3,193500	
38,929000	0,66	3,196140	
38,940000	0,66	3,197550	
38,951000	0,66	3,200510	
38,962000	0,66	3,208450	
38,973000	0,66	3,211130	
38,984000	0,66	3,214060	
38,995000	0,66	3,222380	
39,006000	0,66	3,228460	
39,017000	0,66	3,234010	
39,028000	0,66	3,239550	
39,039000	0,66	3,243680	
39,050000	0,66	3,249300	
39,061000	0,66	3,256380	
39,072000	0,66	3,263030	
39,083000	0,66	3,267170	
39,094000	0,66	3,275320	
39,105000	0,66	3,288920	
39,116000	0,66	3,299550	
39,127000	0,66	3,302520	
39,138000	0,66	3,309440	
39,149000	0,66	3,316250	
39,160000	0,66	3,325770	
39,171000	0,66	3,330820	
39,182000	0,66	3,337470	
39,193000	0,66	3,343700	
39,204000	0,66	3,350380	
39,215000	0,66	3,357870	
39,226000	0,66	3,366840	
39,237000	0,66	3,376310	
39,248000	0,66	3,381880	
39,259000	0,66	3,388320	
39,270000	0,66	3,394460	
39,281000	0,66	3,398060	
39,292000	0,66	3,404630	
39,303000	0,66	3,410900	
39,314000	0,66	3,416910	
39,325000	0,66	3,424750	
39,336000	0,66	3,431380	
39,347000	0,66	3,439180	
39,358000	0,66	3,445820	
39,369000	0,66	3,449590	
39,380000	0,66	3,453250	
39,391000	0,66	3,461510	
39,402000	0,66	3,471470	
39,413000	0,66	3,479970	
39,424000	0,66	3,490140	
39,435000	0,66	3,500210	
39,446000	0,66	3,508670	
39,457000	0,66	3,518140	
39,468000	0,66	3,530950	
39,479000	0,66	3,544690	
39,490000	0,66	3,557270	
39,501000	0,66	3,571240	
39,512000	0,66	3,587430	
39,523000	0,66	3,602990	
39,534000	0,66	3,615850	
39,545000	0,66	3,632950	
39,556000	0,66	3,653250	
39,567000	0,66	3,676430	
39,578000	0,66	3,701500	
39,589000	0,66	3,726210	
39,600000	0,66	3,747980	
39,611000	0,66	3,768140	
39,622000	0,66	3,791290	
39,633000	0,66	3,815040	
39,644000	0,66	3,841430	
39,655000	0,66	3,866250	
39,666000	0,66	3,888550	
39,677000	0,66	3,908870	
39,688000	0,66	3,930440	
39,699000	0,66	3,945170	
39,710000	0,66	3,962440	
39,721000	0,66	3,977810	
39,732000	0,66	3,987460	
39,743000	0,66	3,997950	
39,754000	0,66	4,006350	
39,765000	0,66	4,015060	
39,776000	0,66	4,017910	
39,787000	0,66	4,021930	
39,798000	0,66	4,028650	
39,809000	0,66	4,033970	
39,820000	0,66	4,035430	
39,831000	0,66	4,034760	
39,842000	0,66	4,031910	
39,853000	0,66	4,030550	
39,864000	0,66	4,028430	
39,875000	0,66	4,025580	
39,886000	0,66	4,021810	
39,897000	0,66	4,022450	
39,908000	0,66	4,021410	
39,919000	0,66	4,021900	
39,930000	0,66	4,022230	
39,941000	0,66	4,023690	
39,952000	0,66	4,025320	
39,963000	0,66	4,026360	
39,974000	0,66	4,023420	
39,985000	0,66	4,021870	
39,996000	0,66	4,019170	
40,007000	0,66	4,019670	
