Filepath	C:\Chromel\data\Analytik\Walther group\Guido\mechanosense\GCR260.SEQ\UV_VIS_2.CHL\12214.acd
Channel	UV_VIS_2

Sample Information:
Datasource	PC-8NN4M2J_local
Sequence	Analytik\Walther group\Guido\mechanosense\GCR260.SEQ
Sample	200717-13
Sample Number	318
Sample Position	RC3
Sample ID	12214
Comment	260-P5-4
QNT method	default
PGM file	single-component-3 40min 60C 0,4mLmin
Type	unknown
Status	finished
Date	17.07.2020
Time	19:30:01
Injection Volume (µl)	100,00
Dilution Factor	1,000000
Amount	1,000000
Weight	1,000000

Raw Data Header Information:
Time Min. (min)	0,000
Time Max. (min)	40,007
Raw-Time Min. (min)	0,000
Raw-Time Max. (min)	40,007
Data Points	3638
Detector	VWD3000.dll
Preferred Read Mode	Unknown
Write Mode	Unknown
Data System	Chromeleon
Version High	06
Version Low	80
Build No.	3160
File Format Version	11
Generation Type	8
File ID	239054205
File Status	16
GUID	d4bb8dda-c852-11ea-b409-00184d71f7da
Signal Factor	0,000010
Signal Dimension	mAU
Signal Unit	Absorbance
Signal Min.	-1,5596
Signal Max.	92,643260
Channel Name	UV_VIS_2
Driver Name	VWD-3x00 Detector
Min. Step	66
Max. Step	66
Average Step	66

Signal Parameter Information:
Signal Info	WVL:556 nm
Wavelength	556 nm
	 




















Raw Data:
Time(min)	Step(sec)	Value(mAU)
0,000000	0,00	-0,153950	
0,011000	0,66	-0,152390	
0,022000	0,66	-0,137670	
0,033000	0,66	-0,137030	
0,044000	0,66	-0,140460	
0,055000	0,66	-0,136540	
0,066000	0,66	-0,147840	
0,077000	0,66	-0,141530	
0,088000	0,66	-0,140730	
0,099000	0,66	-0,145780	
0,110000	0,66	-0,150880	
0,121000	0,66	-0,156770	
0,132000	0,66	-0,158050	
0,143000	0,66	-0,151270	
0,154000	0,66	-0,161990	
0,165000	0,66	-0,171740	
0,176000	0,66	-0,185100	
0,187000	0,66	-0,182420	
0,198000	0,66	-0,174060	
0,209000	0,66	-0,172400	
0,220000	0,66	-0,181900	
0,231000	0,66	-0,182110	
0,242000	0,66	-0,191690	
0,253000	0,66	-0,184740	
0,264000	0,66	-0,162380	
0,275000	0,66	-0,146160	
0,286000	0,66	-0,143420	
0,297000	0,66	-0,150910	
0,308000	0,66	-0,153740	
0,319000	0,66	-0,159480	
0,330000	0,66	-0,161240	
0,341000	0,66	-0,150620	
0,352000	0,66	-0,151810	
0,363000	0,66	-0,168590	
0,374000	0,66	-0,178480	
0,385000	0,66	-0,164600	
0,396000	0,66	-0,159260	
0,407000	0,66	-0,163880	
0,418000	0,66	-0,154550	
0,429000	0,66	-0,151840	
0,440000	0,66	-0,153250	
0,451000	0,66	-0,158460	
0,462000	0,66	-0,164890	
0,473000	0,66	-0,174450	
0,484000	0,66	-0,162680	
0,495000	0,66	-0,165550	
0,506000	0,66	-0,171780	
0,517000	0,66	-0,169940	
0,528000	0,66	-0,171080	
0,539000	0,66	-0,167030	
0,550000	0,66	-0,149640	
0,561000	0,66	-0,144430	
0,572000	0,66	-0,147870	
0,583000	0,66	-0,143240	
0,594000	0,66	-0,146960	
0,605000	0,66	-0,158070	
0,616000	0,66	-0,169170	
0,627000	0,66	-0,163750	
0,638000	0,66	-0,149830	
0,649000	0,66	-0,137300	
0,660000	0,66	-0,130210	
0,671000	0,66	-0,115850	
0,682000	0,66	-0,112400	
0,693000	0,66	-0,128280	
0,704000	0,66	-0,151450	
0,715000	0,66	-0,160160	
0,726000	0,66	-0,177300	
0,737000	0,66	-0,190090	
0,748000	0,66	-0,189530	
0,759000	0,66	-0,185010	
0,770000	0,66	-0,175600	
0,781000	0,66	-0,179570	
0,792000	0,66	-0,183030	
0,803000	0,66	-0,190470	
0,814000	0,66	-0,181430	
0,825000	0,66	-0,186590	
0,836000	0,66	-0,190860	
0,847000	0,66	-0,169430	
0,858000	0,66	-0,159030	
0,869000	0,66	-0,150240	
0,880000	0,66	-0,155000	
0,891000	0,66	-0,162250	
0,902000	0,66	-0,167990	
0,913000	0,66	-0,170540	
0,924000	0,66	-0,177830	
0,935000	0,66	-0,157010	
0,946000	0,66	-0,146060	
0,957000	0,66	-0,145330	
0,968000	0,66	-0,143950	
0,979000	0,66	-0,141990	
0,990000	0,66	-0,143370	
1,001000	0,66	-0,142380	
1,012000	0,66	-0,142910	
1,023000	0,66	-0,153090	
1,034000	0,66	-0,162930	
1,045000	0,66	-0,165750	
1,056000	0,66	-0,160090	
1,067000	0,66	-0,149500	
1,078000	0,66	-0,151610	
1,089000	0,66	-0,154600	
1,100000	0,66	-0,154150	
1,111000	0,66	-0,150770	
1,122000	0,66	-0,141150	
1,133000	0,66	-0,157990	
1,144000	0,66	-0,168830	
1,155000	0,66	-0,163380	
1,166000	0,66	-0,167510	
1,177000	0,66	-0,168080	
1,188000	0,66	-0,156240	
1,199000	0,66	-0,156190	
1,210000	0,66	-0,179220	
1,221000	0,66	-0,180350	
1,232000	0,66	-0,169630	
1,243000	0,66	-0,167140	
1,254000	0,66	-0,166860	
1,265000	0,66	-0,149930	
1,276000	0,66	-0,141340	
1,287000	0,66	-0,150730	
1,298000	0,66	-0,187230	
1,309000	0,66	-0,246140	
1,320000	0,66	-0,410950	
1,331000	0,66	-0,622380	
1,342000	0,66	-0,805870	
1,353000	0,66	-0,907350	
1,364000	0,66	-0,908140	
1,375000	0,66	-0,789610	
1,386000	0,66	-0,629520	
1,397000	0,66	-0,454480	
1,408000	0,66	-0,313060	
1,419000	0,66	-0,182940	
1,430000	0,66	-0,091190	
1,441000	0,66	-0,025750	
1,452000	0,66	0,026300	
1,463000	0,66	0,069820	
1,474000	0,66	0,111740	
1,485000	0,66	0,139110	
1,496000	0,66	0,174740	
1,507000	0,66	0,218740	
1,518000	0,66	0,269780	
1,529000	0,66	0,328850	
1,540000	0,66	0,391280	
1,551000	0,66	0,448770	
1,562000	0,66	0,499460	
1,573000	0,66	0,543070	
1,584000	0,66	0,570920	
1,595000	0,66	0,576020	
1,606000	0,66	0,558830	
1,617000	0,66	0,510580	
1,628000	0,66	0,433870	
1,639000	0,66	0,322780	
1,650000	0,66	0,204070	
1,661000	0,66	0,084140	
1,672000	0,66	-0,039890	
1,683000	0,66	-0,162220	
1,694000	0,66	-0,247850	
1,705000	0,66	-0,293660	
1,716000	0,66	-0,335180	
1,727000	0,66	-0,352570	
1,738000	0,66	-0,345570	
1,749000	0,66	-0,320410	
1,760000	0,66	-0,293740	
1,771000	0,66	-0,266680	
1,782000	0,66	-0,221180	
1,793000	0,66	-0,174530	
1,804000	0,66	-0,132510	
1,815000	0,66	-0,093280	
1,826000	0,66	-0,059510	
1,837000	0,66	-0,030080	
1,848000	0,66	-0,003660	
1,859000	0,66	0,022530	
1,870000	0,66	0,045450	
1,881000	0,66	0,058750	
1,892000	0,66	0,070250	
1,903000	0,66	0,084130	
1,914000	0,66	0,100360	
1,925000	0,66	0,105570	
1,936000	0,66	0,111870	
1,947000	0,66	0,109160	
1,958000	0,66	0,092060	
1,969000	0,66	0,101950	
1,980000	0,66	0,120280	
1,991000	0,66	0,125690	
2,002000	0,66	0,135300	
2,013000	0,66	0,136260	
2,024000	0,66	0,132930	
2,035000	0,66	0,131340	
2,046000	0,66	0,129070	
2,057000	0,66	0,127490	
2,068000	0,66	0,131480	
2,079000	0,66	0,139960	
2,090000	0,66	0,139310	
2,101000	0,66	0,134120	
2,112000	0,66	0,127880	
2,123000	0,66	0,143350	
2,134000	0,66	0,148700	
2,145000	0,66	0,122270	
2,156000	0,66	0,103790	
2,167000	0,66	0,100530	
2,178000	0,66	0,030690	
2,189000	0,66	-0,247740	
2,200000	0,66	-0,683020	
2,211000	0,66	-1,130220	
2,222000	0,66	-1,439230	
2,233000	0,66	-1,559600	
2,244000	0,66	-1,538160	
2,255000	0,66	-1,411060	
2,266000	0,66	-1,231490	
2,277000	0,66	-1,047050	
2,288000	0,66	-0,865620	
2,299000	0,66	-0,720660	
2,310000	0,66	-0,596440	
2,321000	0,66	-0,482880	
2,332000	0,66	-0,396830	
2,343000	0,66	-0,341380	
2,354000	0,66	-0,292660	
2,365000	0,66	-0,255710	
2,376000	0,66	-0,213520	
2,387000	0,66	-0,192030	
2,398000	0,66	-0,193710	
2,409000	0,66	-0,200680	
2,420000	0,66	-0,196600	
2,431000	0,66	-0,188470	
2,442000	0,66	-0,190050	
2,453000	0,66	-0,194740	
2,464000	0,66	-0,191620	
2,475000	0,66	-0,182520	
2,486000	0,66	-0,172730	
2,497000	0,66	-0,175950	
2,508000	0,66	-0,191840	
2,519000	0,66	-0,192220	
2,530000	0,66	-0,189510	
2,541000	0,66	-0,182080	
2,552000	0,66	-0,174910	
2,563000	0,66	-0,178670	
2,574000	0,66	-0,162600	
2,585000	0,66	-0,160140	
2,596000	0,66	-0,166610	
2,607000	0,66	-0,152580	
2,618000	0,66	-0,153500	
2,629000	0,66	-0,165650	
2,640000	0,66	-0,165120	
2,651000	0,66	-0,158400	
2,662000	0,66	-0,152940	
2,673000	0,66	-0,166220	
2,684000	0,66	-0,168680	
2,695000	0,66	-0,166900	
2,706000	0,66	-0,166290	
2,717000	0,66	-0,165610	
2,728000	0,66	-0,164500	
2,739000	0,66	-0,160290	
2,750000	0,66	-0,170540	
2,761000	0,66	-0,165140	
2,772000	0,66	-0,152340	
2,783000	0,66	-0,146610	
2,794000	0,66	-0,152840	
2,805000	0,66	-0,150960	
2,816000	0,66	-0,153380	
2,827000	0,66	-0,162330	
2,838000	0,66	-0,181120	
2,849000	0,66	-0,188510	
2,860000	0,66	-0,188000	
2,871000	0,66	-0,198530	
2,882000	0,66	-0,188100	
2,893000	0,66	-0,186540	
2,904000	0,66	-0,176090	
2,915000	0,66	-0,176050	
2,926000	0,66	-0,164220	
2,937000	0,66	-0,168510	
2,948000	0,66	-0,170310	
2,959000	0,66	-0,162960	
2,970000	0,66	-0,147910	
2,981000	0,66	-0,143440	
2,992000	0,66	-0,150770	
3,003000	0,66	-0,159430	
3,014000	0,66	-0,174500	
3,025000	0,66	-0,174790	
3,036000	0,66	-0,164110	
3,047000	0,66	-0,147970	
3,058000	0,66	-0,139130	
3,069000	0,66	-0,133500	
3,080000	0,66	-0,144860	
3,091000	0,66	-0,157770	
3,102000	0,66	-0,157640	
3,113000	0,66	-0,154810	
3,124000	0,66	-0,162250	
3,135000	0,66	-0,161500	
3,146000	0,66	-0,165260	
3,157000	0,66	-0,184140	
3,168000	0,66	-0,186310	
3,179000	0,66	-0,180340	
3,190000	0,66	-0,179340	
3,201000	0,66	-0,170090	
3,212000	0,66	-0,162800	
3,223000	0,66	-0,159050	
3,234000	0,66	-0,152000	
3,245000	0,66	-0,154360	
3,256000	0,66	-0,164120	
3,267000	0,66	-0,173300	
3,278000	0,66	-0,177270	
3,289000	0,66	-0,182000	
3,300000	0,66	-0,173460	
3,311000	0,66	-0,170500	
3,322000	0,66	-0,177250	
3,333000	0,66	-0,163660	
3,344000	0,66	-0,163280	
3,355000	0,66	-0,171670	
3,366000	0,66	-0,173080	
3,377000	0,66	-0,182250	
3,388000	0,66	-0,175300	
3,399000	0,66	-0,165350	
3,410000	0,66	-0,161630	
3,421000	0,66	-0,166350	
3,432000	0,66	-0,157370	
3,443000	0,66	-0,149260	
3,454000	0,66	-0,150870	
3,465000	0,66	-0,146400	
3,476000	0,66	-0,140840	
3,487000	0,66	-0,135340	
3,498000	0,66	-0,135950	
3,509000	0,66	-0,128810	
3,520000	0,66	-0,148890	
3,531000	0,66	-0,165050	
3,542000	0,66	-0,165270	
3,553000	0,66	-0,161810	
3,564000	0,66	-0,160010	
3,575000	0,66	-0,156510	
3,586000	0,66	-0,170180	
3,597000	0,66	-0,151600	
3,608000	0,66	-0,148150	
3,619000	0,66	-0,148920	
3,630000	0,66	-0,149350	
3,641000	0,66	-0,143270	
3,652000	0,66	-0,154320	
3,663000	0,66	-0,170410	
3,674000	0,66	-0,162040	
3,685000	0,66	-0,152170	
3,696000	0,66	-0,154940	
3,707000	0,66	-0,149430	
3,718000	0,66	-0,144150	
3,729000	0,66	-0,150660	
3,740000	0,66	-0,161330	
3,751000	0,66	-0,162000	
3,762000	0,66	-0,157790	
3,773000	0,66	-0,157080	
3,784000	0,66	-0,151170	
3,795000	0,66	-0,154970	
3,806000	0,66	-0,162260	
3,817000	0,66	-0,154930	
3,828000	0,66	-0,153380	
3,839000	0,66	-0,165790	
3,850000	0,66	-0,176540	
3,861000	0,66	-0,190170	
3,872000	0,66	-0,199790	
3,883000	0,66	-0,187530	
3,894000	0,66	-0,172210	
3,905000	0,66	-0,162880	
3,916000	0,66	-0,147660	
3,927000	0,66	-0,142030	
3,938000	0,66	-0,148400	
3,949000	0,66	-0,155970	
3,960000	0,66	-0,162690	
3,971000	0,66	-0,168580	
3,982000	0,66	-0,166580	
3,993000	0,66	-0,155540	
4,004000	0,66	-0,158910	
4,015000	0,66	-0,171480	
4,026000	0,66	-0,176330	
4,037000	0,66	-0,180620	
4,048000	0,66	-0,180060	
4,059000	0,66	-0,179900	
4,070000	0,66	-0,181750	
4,081000	0,66	-0,173290	
4,092000	0,66	-0,171880	
4,103000	0,66	-0,174830	
4,114000	0,66	-0,177530	
4,125000	0,66	-0,181220	
4,136000	0,66	-0,187080	
4,147000	0,66	-0,160940	
4,158000	0,66	-0,166610	
4,169000	0,66	-0,165890	
4,180000	0,66	-0,181730	
4,191000	0,66	-0,185780	
4,202000	0,66	-0,182120	
4,213000	0,66	-0,170390	
4,224000	0,66	-0,158250	
4,235000	0,66	-0,156870	
4,246000	0,66	-0,171000	
4,257000	0,66	-0,164020	
4,268000	0,66	-0,158320	
4,279000	0,66	-0,165690	
4,290000	0,66	-0,165860	
4,301000	0,66	-0,171740	
4,312000	0,66	-0,167860	
4,323000	0,66	-0,156540	
4,334000	0,66	-0,150740	
4,345000	0,66	-0,157770	
4,356000	0,66	-0,167890	
4,367000	0,66	-0,162660	
4,378000	0,66	-0,153320	
4,389000	0,66	-0,146910	
4,400000	0,66	-0,152670	
4,411000	0,66	-0,159090	
4,422000	0,66	-0,177700	
4,433000	0,66	-0,174850	
4,444000	0,66	-0,154620	
4,455000	0,66	-0,154610	
4,466000	0,66	-0,151100	
4,477000	0,66	-0,153820	
4,488000	0,66	-0,161210	
4,499000	0,66	-0,153410	
4,510000	0,66	-0,144480	
4,521000	0,66	-0,158980	
4,532000	0,66	-0,163920	
4,543000	0,66	-0,149840	
4,554000	0,66	-0,144620	
4,565000	0,66	-0,147110	
4,576000	0,66	-0,148400	
4,587000	0,66	-0,153410	
4,598000	0,66	-0,157150	
4,609000	0,66	-0,149400	
4,620000	0,66	-0,147890	
4,631000	0,66	-0,146840	
4,642000	0,66	-0,157270	
4,653000	0,66	-0,172060	
4,664000	0,66	-0,167940	
4,675000	0,66	-0,169740	
4,686000	0,66	-0,179670	
4,697000	0,66	-0,192310	
4,708000	0,66	-0,195980	
4,719000	0,66	-0,202130	
4,730000	0,66	-0,187730	
4,741000	0,66	-0,194260	
4,752000	0,66	-0,189930	
4,763000	0,66	-0,184040	
4,774000	0,66	-0,174560	
4,785000	0,66	-0,154460	
4,796000	0,66	-0,139370	
4,807000	0,66	-0,156610	
4,818000	0,66	-0,178020	
4,829000	0,66	-0,172060	
4,840000	0,66	-0,167160	
4,851000	0,66	-0,179460	
4,862000	0,66	-0,177810	
4,873000	0,66	-0,176560	
4,884000	0,66	-0,173250	
4,895000	0,66	-0,173450	
4,906000	0,66	-0,182650	
4,917000	0,66	-0,194980	
4,928000	0,66	-0,182840	
4,939000	0,66	-0,193010	
4,950000	0,66	-0,198390	
4,961000	0,66	-0,197910	
4,972000	0,66	-0,197440	
4,983000	0,66	-0,190710	
4,994000	0,66	-0,198700	
5,005000	0,66	-0,187980	
5,016000	0,66	-0,180980	
5,027000	0,66	-0,191970	
5,038000	0,66	-0,197300	
5,049000	0,66	-0,207350	
5,060000	0,66	-0,188060	
5,071000	0,66	-0,184010	
5,082000	0,66	-0,196170	
5,093000	0,66	-0,190430	
5,104000	0,66	-0,181350	
5,115000	0,66	-0,175780	
5,126000	0,66	-0,173830	
5,137000	0,66	-0,184680	
5,148000	0,66	-0,176500	
5,159000	0,66	-0,171410	
5,170000	0,66	-0,164890	
5,181000	0,66	-0,157660	
5,192000	0,66	-0,159300	
5,203000	0,66	-0,151560	
5,214000	0,66	-0,144230	
5,225000	0,66	-0,145850	
5,236000	0,66	-0,157440	
5,247000	0,66	-0,176500	
5,258000	0,66	-0,180540	
5,269000	0,66	-0,183620	
5,280000	0,66	-0,179410	
5,291000	0,66	-0,166700	
5,302000	0,66	-0,168170	
5,313000	0,66	-0,158720	
5,324000	0,66	-0,150860	
5,335000	0,66	-0,148920	
5,346000	0,66	-0,157530	
5,357000	0,66	-0,167740	
5,368000	0,66	-0,174310	
5,379000	0,66	-0,179490	
5,390000	0,66	-0,182930	
5,401000	0,66	-0,177770	
5,412000	0,66	-0,183400	
5,423000	0,66	-0,194570	
5,434000	0,66	-0,187490	
5,445000	0,66	-0,197320	
5,456000	0,66	-0,189200	
5,467000	0,66	-0,173670	
5,478000	0,66	-0,158060	
5,489000	0,66	-0,164030	
5,500000	0,66	-0,169340	
5,511000	0,66	-0,163300	
5,522000	0,66	-0,166620	
5,533000	0,66	-0,170380	
5,544000	0,66	-0,168600	
5,555000	0,66	-0,166470	
5,566000	0,66	-0,165500	
5,577000	0,66	-0,177500	
5,588000	0,66	-0,178610	
5,599000	0,66	-0,182690	
5,610000	0,66	-0,182270	
5,621000	0,66	-0,183950	
5,632000	0,66	-0,184140	
5,643000	0,66	-0,182100	
5,654000	0,66	-0,188330	
5,665000	0,66	-0,166060	
5,676000	0,66	-0,173020	
5,687000	0,66	-0,182990	
5,698000	0,66	-0,190840	
5,709000	0,66	-0,192220	
5,720000	0,66	-0,181270	
5,731000	0,66	-0,182300	
5,742000	0,66	-0,184150	
5,753000	0,66	-0,172010	
5,764000	0,66	-0,177680	
5,775000	0,66	-0,184410	
5,786000	0,66	-0,195220	
5,797000	0,66	-0,192290	
5,808000	0,66	-0,191020	
5,819000	0,66	-0,189980	
5,830000	0,66	-0,183160	
5,841000	0,66	-0,170450	
5,852000	0,66	-0,167740	
5,863000	0,66	-0,180560	
5,874000	0,66	-0,191470	
5,885000	0,66	-0,191310	
5,896000	0,66	-0,189750	
5,907000	0,66	-0,186000	
5,918000	0,66	-0,175350	
5,929000	0,66	-0,173170	
5,940000	0,66	-0,178050	
5,951000	0,66	-0,177230	
5,962000	0,66	-0,190750	
5,973000	0,66	-0,216940	
5,984000	0,66	-0,220380	
5,995000	0,66	-0,205480	
6,006000	0,66	-0,192330	
6,017000	0,66	-0,191110	
6,028000	0,66	-0,204400	
6,039000	0,66	-0,207910	
6,050000	0,66	-0,195420	
6,061000	0,66	-0,176630	
6,072000	0,66	-0,172920	
6,083000	0,66	-0,188100	
6,094000	0,66	-0,204240	
6,105000	0,66	-0,206920	
6,116000	0,66	-0,202380	
6,127000	0,66	-0,205860	
6,138000	0,66	-0,207870	
6,149000	0,66	-0,210550	
6,160000	0,66	-0,206160	
6,171000	0,66	-0,210270	
6,182000	0,66	-0,235970	
6,193000	0,66	-0,245380	
6,204000	0,66	-0,238170	
6,215000	0,66	-0,213980	
6,226000	0,66	-0,205650	
6,237000	0,66	-0,225040	
6,248000	0,66	-0,225080	
6,259000	0,66	-0,238260	
6,270000	0,66	-0,238600	
6,281000	0,66	-0,223390	
6,292000	0,66	-0,221920	
6,303000	0,66	-0,239620	
6,314000	0,66	-0,240200	
6,325000	0,66	-0,243130	
6,336000	0,66	-0,240120	
6,347000	0,66	-0,225780	
6,358000	0,66	-0,230600	
6,369000	0,66	-0,222800	
6,380000	0,66	-0,241260	
6,391000	0,66	-0,249630	
6,402000	0,66	-0,241680	
6,413000	0,66	-0,243020	
6,424000	0,66	-0,226690	
6,435000	0,66	-0,221900	
6,446000	0,66	-0,219610	
6,457000	0,66	-0,211720	
6,468000	0,66	-0,222100	
6,479000	0,66	-0,226860	
6,490000	0,66	-0,209260	
6,501000	0,66	-0,191310	
6,512000	0,66	-0,198460	
6,523000	0,66	-0,203610	
6,534000	0,66	-0,211050	
6,545000	0,66	-0,216230	
6,556000	0,66	-0,214410	
6,567000	0,66	-0,228710	
6,578000	0,66	-0,252800	
6,589000	0,66	-0,251620	
6,600000	0,66	-0,250730	
6,611000	0,66	-0,256780	
6,622000	0,66	-0,249310	
6,633000	0,66	-0,238930	
6,644000	0,66	-0,235310	
6,655000	0,66	-0,236310	
6,666000	0,66	-0,232220	
6,677000	0,66	-0,227740	
6,688000	0,66	-0,236430	
6,699000	0,66	-0,242440	
6,710000	0,66	-0,244530	
6,721000	0,66	-0,252190	
6,732000	0,66	-0,245210	
6,743000	0,66	-0,240230	
6,754000	0,66	-0,251930	
6,765000	0,66	-0,244040	
6,776000	0,66	-0,239810	
6,787000	0,66	-0,234020	
6,798000	0,66	-0,223270	
6,809000	0,66	-0,239650	
6,820000	0,66	-0,252460	
6,831000	0,66	-0,264400	
6,842000	0,66	-0,254750	
6,853000	0,66	-0,244310	
6,864000	0,66	-0,224090	
6,875000	0,66	-0,224940	
6,886000	0,66	-0,233250	
6,897000	0,66	-0,237030	
6,908000	0,66	-0,242890	
6,919000	0,66	-0,239490	
6,930000	0,66	-0,232720	
6,941000	0,66	-0,216970	
6,952000	0,66	-0,218420	
6,963000	0,66	-0,217060	
6,974000	0,66	-0,215890	
6,985000	0,66	-0,223840	
6,996000	0,66	-0,220090	
7,007000	0,66	-0,227600	
7,018000	0,66	-0,219020	
7,029000	0,66	-0,211350	
7,040000	0,66	-0,218520	
7,051000	0,66	-0,232690	
7,062000	0,66	-0,240870	
7,073000	0,66	-0,235410	
7,084000	0,66	-0,234490	
7,095000	0,66	-0,230730	
7,106000	0,66	-0,226280	
7,117000	0,66	-0,235930	
7,128000	0,66	-0,237660	
7,139000	0,66	-0,223790	
7,150000	0,66	-0,206660	
7,161000	0,66	-0,211140	
7,172000	0,66	-0,232440	
7,183000	0,66	-0,238080	
7,194000	0,66	-0,236930	
7,205000	0,66	-0,227890	
7,216000	0,66	-0,215380	
7,227000	0,66	-0,215340	
7,238000	0,66	-0,233330	
7,249000	0,66	-0,246200	
7,260000	0,66	-0,237550	
7,271000	0,66	-0,231720	
7,282000	0,66	-0,221170	
7,293000	0,66	-0,219440	
7,304000	0,66	-0,240720	
7,315000	0,66	-0,243100	
7,326000	0,66	-0,225630	
7,337000	0,66	-0,229490	
7,348000	0,66	-0,243210	
7,359000	0,66	-0,255440	
7,370000	0,66	-0,257010	
7,381000	0,66	-0,246700	
7,392000	0,66	-0,249600	
7,403000	0,66	-0,250750	
7,414000	0,66	-0,253150	
7,425000	0,66	-0,240160	
7,436000	0,66	-0,231140	
7,447000	0,66	-0,233310	
7,458000	0,66	-0,227430	
7,469000	0,66	-0,224730	
7,480000	0,66	-0,221990	
7,491000	0,66	-0,229260	
7,502000	0,66	-0,230450	
7,513000	0,66	-0,228640	
7,524000	0,66	-0,234670	
7,535000	0,66	-0,234850	
7,546000	0,66	-0,224270	
7,557000	0,66	-0,232980	
7,568000	0,66	-0,233780	
7,579000	0,66	-0,241170	
7,590000	0,66	-0,243770	
7,601000	0,66	-0,246560	
7,612000	0,66	-0,244520	
7,623000	0,66	-0,255620	
7,634000	0,66	-0,262900	
7,645000	0,66	-0,263530	
7,656000	0,66	-0,258810	
7,667000	0,66	-0,239970	
7,678000	0,66	-0,226400	
7,689000	0,66	-0,226750	
7,700000	0,66	-0,247020	
7,711000	0,66	-0,240790	
7,722000	0,66	-0,235630	
7,733000	0,66	-0,233370	
7,744000	0,66	-0,236390	
7,755000	0,66	-0,237290	
7,766000	0,66	-0,239680	
7,777000	0,66	-0,246310	
7,788000	0,66	-0,243410	
7,799000	0,66	-0,251570	
7,810000	0,66	-0,250490	
7,821000	0,66	-0,254360	
7,832000	0,66	-0,256020	
7,843000	0,66	-0,243830	
7,854000	0,66	-0,230290	
7,865000	0,66	-0,243270	
7,876000	0,66	-0,241620	
7,887000	0,66	-0,243830	
7,898000	0,66	-0,242170	
7,909000	0,66	-0,234540	
7,920000	0,66	-0,226310	
7,931000	0,66	-0,226390	
7,942000	0,66	-0,231820	
7,953000	0,66	-0,225900	
7,964000	0,66	-0,233580	
7,975000	0,66	-0,237810	
7,986000	0,66	-0,234430	
7,997000	0,66	-0,225210	
8,008000	0,66	-0,216890	
8,019000	0,66	-0,220520	
8,030000	0,66	-0,228690	
8,041000	0,66	-0,229500	
8,052000	0,66	-0,231410	
8,063000	0,66	-0,242400	
8,074000	0,66	-0,246040	
8,085000	0,66	-0,243330	
8,096000	0,66	-0,245370	
8,107000	0,66	-0,252040	
8,118000	0,66	-0,256470	
8,129000	0,66	-0,250760	
8,140000	0,66	-0,246190	
8,151000	0,66	-0,251690	
8,162000	0,66	-0,254640	
8,173000	0,66	-0,255430	
8,184000	0,66	-0,247770	
8,195000	0,66	-0,249960	
8,206000	0,66	-0,249970	
8,217000	0,66	-0,240480	
8,228000	0,66	-0,225760	
8,239000	0,66	-0,236310	
8,250000	0,66	-0,227260	
8,261000	0,66	-0,230590	
8,272000	0,66	-0,223940	
8,283000	0,66	-0,231040	
8,294000	0,66	-0,238410	
8,305000	0,66	-0,241360	
8,316000	0,66	-0,242160	
8,327000	0,66	-0,246910	
8,338000	0,66	-0,251370	
8,349000	0,66	-0,230860	
8,360000	0,66	-0,229520	
8,371000	0,66	-0,224870	
8,382000	0,66	-0,223910	
8,393000	0,66	-0,232960	
8,404000	0,66	-0,242160	
8,415000	0,66	-0,242380	
8,426000	0,66	-0,227150	
8,437000	0,66	-0,220210	
8,448000	0,66	-0,216900	
8,459000	0,66	-0,222400	
8,470000	0,66	-0,225550	
8,481000	0,66	-0,223940	
8,492000	0,66	-0,218630	
8,503000	0,66	-0,233900	
8,514000	0,66	-0,232200	
8,525000	0,66	-0,245780	
8,536000	0,66	-0,238340	
8,547000	0,66	-0,226340	
8,558000	0,66	-0,225040	
8,569000	0,66	-0,228350	
8,580000	0,66	-0,236590	
8,591000	0,66	-0,243270	
8,602000	0,66	-0,252540	
8,613000	0,66	-0,261340	
8,624000	0,66	-0,241960	
8,635000	0,66	-0,220530	
8,646000	0,66	-0,223570	
8,657000	0,66	-0,231420	
8,668000	0,66	-0,236670	
8,679000	0,66	-0,234010	
8,690000	0,66	-0,223370	
8,701000	0,66	-0,220550	
8,712000	0,66	-0,230930	
8,723000	0,66	-0,234820	
8,734000	0,66	-0,236530	
8,745000	0,66	-0,235410	
8,756000	0,66	-0,231110	
8,767000	0,66	-0,233640	
8,778000	0,66	-0,235060	
8,789000	0,66	-0,235530	
8,800000	0,66	-0,234480	
8,811000	0,66	-0,250090	
8,822000	0,66	-0,264170	
8,833000	0,66	-0,269680	
8,844000	0,66	-0,264760	
8,855000	0,66	-0,256170	
8,866000	0,66	-0,251700	
8,877000	0,66	-0,242480	
8,888000	0,66	-0,244470	
8,899000	0,66	-0,247710	
8,910000	0,66	-0,236960	
8,921000	0,66	-0,243620	
8,932000	0,66	-0,255350	
8,943000	0,66	-0,242880	
8,954000	0,66	-0,236410	
8,965000	0,66	-0,231660	
8,976000	0,66	-0,234340	
8,987000	0,66	-0,225030	
8,998000	0,66	-0,235490	
9,009000	0,66	-0,238370	
9,020000	0,66	-0,238080	
9,031000	0,66	-0,246150	
9,042000	0,66	-0,230270	
9,053000	0,66	-0,222930	
9,064000	0,66	-0,229480	
9,075000	0,66	-0,236100	
9,086000	0,66	-0,246910	
9,097000	0,66	-0,257750	
9,108000	0,66	-0,247630	
9,119000	0,66	-0,235540	
9,130000	0,66	-0,235900	
9,141000	0,66	-0,247310	
9,152000	0,66	-0,249650	
9,163000	0,66	-0,241900	
9,174000	0,66	-0,235300	
9,185000	0,66	-0,231680	
9,196000	0,66	-0,234330	
9,207000	0,66	-0,230020	
9,218000	0,66	-0,228120	
9,229000	0,66	-0,238520	
9,240000	0,66	-0,238810	
9,251000	0,66	-0,253760	
9,262000	0,66	-0,253580	
9,273000	0,66	-0,251710	
9,284000	0,66	-0,255440	
9,295000	0,66	-0,253250	
9,306000	0,66	-0,252140	
9,317000	0,66	-0,252810	
9,328000	0,66	-0,258350	
9,339000	0,66	-0,263470	
9,350000	0,66	-0,258690	
9,361000	0,66	-0,257150	
9,372000	0,66	-0,261460	
9,383000	0,66	-0,255520	
9,394000	0,66	-0,250490	
9,405000	0,66	-0,240270	
9,416000	0,66	-0,240160	
9,427000	0,66	-0,256750	
9,438000	0,66	-0,262330	
9,449000	0,66	-0,257310	
9,460000	0,66	-0,254210	
9,471000	0,66	-0,253900	
9,482000	0,66	-0,255710	
9,493000	0,66	-0,260020	
9,504000	0,66	-0,258140	
9,515000	0,66	-0,246100	
9,526000	0,66	-0,228020	
9,537000	0,66	-0,219930	
9,548000	0,66	-0,214710	
9,559000	0,66	-0,214490	
9,570000	0,66	-0,219910	
9,581000	0,66	-0,226390	
9,592000	0,66	-0,225760	
9,603000	0,66	-0,214820	
9,614000	0,66	-0,211710	
9,625000	0,66	-0,207400	
9,636000	0,66	-0,228120	
9,647000	0,66	-0,247820	
9,658000	0,66	-0,237750	
9,669000	0,66	-0,237370	
9,680000	0,66	-0,228620	
9,691000	0,66	-0,237760	
9,702000	0,66	-0,239580	
9,713000	0,66	-0,252070	
9,724000	0,66	-0,257450	
9,735000	0,66	-0,270280	
9,746000	0,66	-0,275030	
9,757000	0,66	-0,258280	
9,768000	0,66	-0,251820	
9,779000	0,66	-0,244870	
9,790000	0,66	-0,244890	
9,801000	0,66	-0,240380	
9,812000	0,66	-0,239170	
9,823000	0,66	-0,251260	
9,834000	0,66	-0,241990	
9,845000	0,66	-0,237280	
9,856000	0,66	-0,232000	
9,867000	0,66	-0,247920	
9,878000	0,66	-0,267990	
9,889000	0,66	-0,269080	
9,900000	0,66	-0,267570	
9,911000	0,66	-0,260680	
9,922000	0,66	-0,248890	
9,933000	0,66	-0,242680	
9,944000	0,66	-0,243550	
9,955000	0,66	-0,259100	
9,966000	0,66	-0,254600	
9,977000	0,66	-0,249440	
9,988000	0,66	-0,244250	
9,999000	0,66	-0,247220	
10,010000	0,66	-0,242720	
10,021000	0,66	-0,232500	
10,032000	0,66	-0,234940	
10,043000	0,66	-0,241700	
10,054000	0,66	-0,254460	
10,065000	0,66	-0,253420	
10,076000	0,66	-0,260870	
10,087000	0,66	-0,259050	
10,098000	0,66	-0,258160	
10,109000	0,66	-0,257600	
10,120000	0,66	-0,240270	
10,131000	0,66	-0,223800	
10,142000	0,66	-0,213750	
10,153000	0,66	-0,219510	
10,164000	0,66	-0,228140	
10,175000	0,66	-0,226900	
10,186000	0,66	-0,227440	
10,197000	0,66	-0,233280	
10,208000	0,66	-0,246610	
10,219000	0,66	-0,257580	
10,230000	0,66	-0,248110	
10,241000	0,66	-0,254340	
10,252000	0,66	-0,263360	
10,263000	0,66	-0,265690	
10,274000	0,66	-0,263310	
10,285000	0,66	-0,260180	
10,296000	0,66	-0,261350	
10,307000	0,66	-0,260900	
10,318000	0,66	-0,262800	
10,329000	0,66	-0,272540	
10,340000	0,66	-0,268090	
10,351000	0,66	-0,261750	
10,362000	0,66	-0,257140	
10,373000	0,66	-0,253680	
10,384000	0,66	-0,265080	
10,395000	0,66	-0,269900	
10,406000	0,66	-0,259590	
10,417000	0,66	-0,262290	
10,428000	0,66	-0,261280	
10,439000	0,66	-0,256820	
10,450000	0,66	-0,248260	
10,461000	0,66	-0,241760	
10,472000	0,66	-0,253070	
10,483000	0,66	-0,254840	
10,494000	0,66	-0,247210	
10,505000	0,66	-0,252290	
10,516000	0,66	-0,237040	
10,527000	0,66	-0,241420	
10,538000	0,66	-0,238970	
10,549000	0,66	-0,255710	
10,560000	0,66	-0,245720	
10,571000	0,66	-0,253910	
10,582000	0,66	-0,257570	
10,593000	0,66	-0,242820	
10,604000	0,66	-0,225660	
10,615000	0,66	-0,218790	
10,626000	0,66	-0,224680	
10,637000	0,66	-0,218210	
10,648000	0,66	-0,208230	
10,659000	0,66	-0,216790	
10,670000	0,66	-0,223450	
10,681000	0,66	-0,223650	
10,692000	0,66	-0,222740	
10,703000	0,66	-0,226410	
10,714000	0,66	-0,230040	
10,725000	0,66	-0,230670	
10,736000	0,66	-0,221650	
10,747000	0,66	-0,216340	
10,758000	0,66	-0,217410	
10,769000	0,66	-0,222740	
10,780000	0,66	-0,237560	
10,791000	0,66	-0,247680	
10,802000	0,66	-0,239860	
10,813000	0,66	-0,229890	
10,824000	0,66	-0,224050	
10,835000	0,66	-0,217490	
10,846000	0,66	-0,226430	
10,857000	0,66	-0,231460	
10,868000	0,66	-0,227760	
10,879000	0,66	-0,240840	
10,890000	0,66	-0,241870	
10,901000	0,66	-0,233420	
10,912000	0,66	-0,228700	
10,923000	0,66	-0,236590	
10,934000	0,66	-0,236450	
10,945000	0,66	-0,216450	
10,956000	0,66	-0,212610	
10,967000	0,66	-0,220680	
10,978000	0,66	-0,222420	
10,989000	0,66	-0,237090	
11,000000	0,66	-0,249100	
11,011000	0,66	-0,256790	
11,022000	0,66	-0,262820	
11,033000	0,66	-0,258980	
11,044000	0,66	-0,258500	
11,055000	0,66	-0,258820	
11,066000	0,66	-0,244730	
11,077000	0,66	-0,237920	
11,088000	0,66	-0,245650	
11,099000	0,66	-0,252380	
11,110000	0,66	-0,248450	
11,121000	0,66	-0,235670	
11,132000	0,66	-0,231850	
11,143000	0,66	-0,231240	
11,154000	0,66	-0,233080	
11,165000	0,66	-0,239250	
11,176000	0,66	-0,239490	
11,187000	0,66	-0,244510	
11,198000	0,66	-0,238930	
11,209000	0,66	-0,230010	
11,220000	0,66	-0,213310	
11,231000	0,66	-0,225570	
11,242000	0,66	-0,235660	
11,253000	0,66	-0,236350	
11,264000	0,66	-0,229960	
11,275000	0,66	-0,237170	
11,286000	0,66	-0,225490	
11,297000	0,66	-0,236690	
11,308000	0,66	-0,251200	
11,319000	0,66	-0,231120	
11,330000	0,66	-0,224570	
11,341000	0,66	-0,222840	
11,352000	0,66	-0,226430	
11,363000	0,66	-0,240680	
11,374000	0,66	-0,233170	
11,385000	0,66	-0,216200	
11,396000	0,66	-0,207480	
11,407000	0,66	-0,206870	
11,418000	0,66	-0,221060	
11,429000	0,66	-0,224120	
11,440000	0,66	-0,223510	
11,451000	0,66	-0,237590	
11,462000	0,66	-0,255860	
11,473000	0,66	-0,254910	
11,484000	0,66	-0,255570	
11,495000	0,66	-0,255190	
11,506000	0,66	-0,249840	
11,517000	0,66	-0,261020	
11,528000	0,66	-0,265660	
11,539000	0,66	-0,259500	
11,550000	0,66	-0,257910	
11,561000	0,66	-0,247520	
11,572000	0,66	-0,243180	
11,583000	0,66	-0,246710	
11,594000	0,66	-0,237550	
11,605000	0,66	-0,231200	
11,616000	0,66	-0,233600	
11,627000	0,66	-0,246740	
11,638000	0,66	-0,245710	
11,649000	0,66	-0,242840	
11,660000	0,66	-0,239870	
11,671000	0,66	-0,242730	
11,682000	0,66	-0,245270	
11,693000	0,66	-0,233390	
11,704000	0,66	-0,234590	
11,715000	0,66	-0,251780	
11,726000	0,66	-0,257960	
11,737000	0,66	-0,256070	
11,748000	0,66	-0,264210	
11,759000	0,66	-0,251510	
11,770000	0,66	-0,233880	
11,781000	0,66	-0,222100	
11,792000	0,66	-0,231870	
11,803000	0,66	-0,234290	
11,814000	0,66	-0,236180	
11,825000	0,66	-0,246340	
11,836000	0,66	-0,253820	
11,847000	0,66	-0,262720	
11,858000	0,66	-0,261780	
11,869000	0,66	-0,252530	
11,880000	0,66	-0,250010	
11,891000	0,66	-0,240420	
11,902000	0,66	-0,226780	
11,913000	0,66	-0,213120	
11,924000	0,66	-0,221920	
11,935000	0,66	-0,235230	
11,946000	0,66	-0,250200	
11,957000	0,66	-0,246300	
11,968000	0,66	-0,246590	
11,979000	0,66	-0,252250	
11,990000	0,66	-0,248330	
12,001000	0,66	-0,246640	
12,012000	0,66	-0,242300	
12,023000	0,66	-0,246680	
12,034000	0,66	-0,251250	
12,045000	0,66	-0,246240	
12,056000	0,66	-0,239090	
12,067000	0,66	-0,237810	
12,078000	0,66	-0,228280	
12,089000	0,66	-0,234210	
12,100000	0,66	-0,245150	
12,111000	0,66	-0,256820	
12,122000	0,66	-0,258940	
12,133000	0,66	-0,244860	
12,144000	0,66	-0,232420	
12,155000	0,66	-0,232780	
12,166000	0,66	-0,242980	
12,177000	0,66	-0,250510	
12,188000	0,66	-0,240930	
12,199000	0,66	-0,227360	
12,210000	0,66	-0,224370	
12,221000	0,66	-0,213840	
12,232000	0,66	-0,202470	
12,243000	0,66	-0,213630	
12,254000	0,66	-0,223480	
12,265000	0,66	-0,224710	
12,276000	0,66	-0,228310	
12,287000	0,66	-0,225480	
12,298000	0,66	-0,225310	
12,309000	0,66	-0,224690	
12,320000	0,66	-0,225900	
12,331000	0,66	-0,217410	
12,342000	0,66	-0,218410	
12,353000	0,66	-0,217870	
12,364000	0,66	-0,221610	
12,375000	0,66	-0,224800	
12,386000	0,66	-0,225940	
12,397000	0,66	-0,231920	
12,408000	0,66	-0,247490	
12,419000	0,66	-0,258090	
12,430000	0,66	-0,256250	
12,441000	0,66	-0,251600	
12,452000	0,66	-0,249080	
12,463000	0,66	-0,235760	
12,474000	0,66	-0,246700	
12,485000	0,66	-0,250290	
12,496000	0,66	-0,260180	
12,507000	0,66	-0,274920	
12,518000	0,66	-0,274660	
12,529000	0,66	-0,271550	
12,540000	0,66	-0,277520	
12,551000	0,66	-0,289200	
12,562000	0,66	-0,284350	
12,573000	0,66	-0,268090	
12,584000	0,66	-0,272690	
12,595000	0,66	-0,262360	
12,606000	0,66	-0,256980	
12,617000	0,66	-0,267400	
12,628000	0,66	-0,281020	
12,639000	0,66	-0,271600	
12,650000	0,66	-0,266170	
12,661000	0,66	-0,269310	
12,672000	0,66	-0,255350	
12,683000	0,66	-0,245330	
12,694000	0,66	-0,233470	
12,705000	0,66	-0,212940	
12,716000	0,66	-0,218610	
12,727000	0,66	-0,233250	
12,738000	0,66	-0,231370	
12,749000	0,66	-0,240610	
12,760000	0,66	-0,243840	
12,771000	0,66	-0,249480	
12,782000	0,66	-0,255350	
12,793000	0,66	-0,257600	
12,804000	0,66	-0,256390	
12,815000	0,66	-0,260960	
12,826000	0,66	-0,272550	
12,837000	0,66	-0,274880	
12,848000	0,66	-0,274160	
12,859000	0,66	-0,270700	
12,870000	0,66	-0,257190	
12,881000	0,66	-0,256570	
12,892000	0,66	-0,260150	
12,903000	0,66	-0,249280	
12,914000	0,66	-0,237310	
12,925000	0,66	-0,234160	
12,936000	0,66	-0,237490	
12,947000	0,66	-0,231790	
12,958000	0,66	-0,216410	
12,969000	0,66	-0,213170	
12,980000	0,66	-0,218650	
12,991000	0,66	-0,231710	
13,002000	0,66	-0,253650	
13,013000	0,66	-0,249130	
13,024000	0,66	-0,235810	
13,035000	0,66	-0,233870	
13,046000	0,66	-0,223020	
13,057000	0,66	-0,226820	
13,068000	0,66	-0,238580	
13,079000	0,66	-0,246610	
13,090000	0,66	-0,258400	
13,101000	0,66	-0,254620	
13,112000	0,66	-0,262610	
13,123000	0,66	-0,268460	
13,134000	0,66	-0,254340	
13,145000	0,66	-0,250710	
13,156000	0,66	-0,235840	
13,167000	0,66	-0,244320	
13,178000	0,66	-0,254470	
13,189000	0,66	-0,248470	
13,200000	0,66	-0,244520	
13,211000	0,66	-0,219140	
13,222000	0,66	-0,209510	
13,233000	0,66	-0,197650	
13,244000	0,66	-0,205590	
13,255000	0,66	-0,224280	
13,266000	0,66	-0,235830	
13,277000	0,66	-0,231690	
13,288000	0,66	-0,226730	
13,299000	0,66	-0,245510	
13,310000	0,66	-0,253010	
13,321000	0,66	-0,245960	
13,332000	0,66	-0,222220	
13,343000	0,66	-0,213750	
13,354000	0,66	-0,224310	
13,365000	0,66	-0,219630	
13,376000	0,66	-0,228730	
13,387000	0,66	-0,236820	
13,398000	0,66	-0,230340	
13,409000	0,66	-0,225250	
13,420000	0,66	-0,218480	
13,431000	0,66	-0,215810	
13,442000	0,66	-0,236200	
13,453000	0,66	-0,232780	
13,464000	0,66	-0,211050	
13,475000	0,66	-0,225130	
13,486000	0,66	-0,243700	
13,497000	0,66	-0,244170	
13,508000	0,66	-0,229240	
13,519000	0,66	-0,219370	
13,530000	0,66	-0,221250	
13,541000	0,66	-0,228300	
13,552000	0,66	-0,233490	
13,563000	0,66	-0,230730	
13,574000	0,66	-0,237550	
13,585000	0,66	-0,245580	
13,596000	0,66	-0,244220	
13,607000	0,66	-0,245190	
13,618000	0,66	-0,238330	
13,629000	0,66	-0,232080	
13,640000	0,66	-0,240240	
13,651000	0,66	-0,250180	
13,662000	0,66	-0,262730	
13,673000	0,66	-0,272580	
13,684000	0,66	-0,272420	
13,695000	0,66	-0,266580	
13,706000	0,66	-0,254750	
13,717000	0,66	-0,249930	
13,728000	0,66	-0,254740	
13,739000	0,66	-0,246980	
13,750000	0,66	-0,245590	
13,761000	0,66	-0,248590	
13,772000	0,66	-0,253680	
13,783000	0,66	-0,251820	
13,794000	0,66	-0,244150	
13,805000	0,66	-0,243370	
13,816000	0,66	-0,235830	
13,827000	0,66	-0,233830	
13,838000	0,66	-0,231100	
13,849000	0,66	-0,243610	
13,860000	0,66	-0,241450	
13,871000	0,66	-0,239280	
13,882000	0,66	-0,228310	
13,893000	0,66	-0,227470	
13,904000	0,66	-0,222040	
13,915000	0,66	-0,235580	
13,926000	0,66	-0,252490	
13,937000	0,66	-0,245750	
13,948000	0,66	-0,232870	
13,959000	0,66	-0,225400	
13,970000	0,66	-0,216220	
13,981000	0,66	-0,221960	
13,992000	0,66	-0,209790	
14,003000	0,66	-0,207640	
14,014000	0,66	-0,205840	
14,025000	0,66	-0,188450	
14,036000	0,66	-0,210220	
14,047000	0,66	-0,213400	
14,058000	0,66	-0,220290	
14,069000	0,66	-0,251840	
14,080000	0,66	-0,259370	
14,091000	0,66	-0,247910	
14,102000	0,66	-0,238690	
14,113000	0,66	-0,228590	
14,124000	0,66	-0,223900	
14,135000	0,66	-0,222930	
14,146000	0,66	-0,218340	
14,157000	0,66	-0,207430	
14,168000	0,66	-0,212640	
14,179000	0,66	-0,219680	
14,190000	0,66	-0,202050	
14,201000	0,66	-0,185970	
14,212000	0,66	-0,173360	
14,223000	0,66	-0,147910	
14,234000	0,66	-0,117720	
14,245000	0,66	-0,089080	
14,256000	0,66	-0,088020	
14,267000	0,66	-0,101980	
14,278000	0,66	-0,098330	
14,289000	0,66	-0,097310	
14,300000	0,66	-0,105480	
14,311000	0,66	-0,119900	
14,322000	0,66	-0,122240	
14,333000	0,66	-0,111250	
14,344000	0,66	-0,110480	
14,355000	0,66	-0,117890	
14,366000	0,66	-0,143620	
14,377000	0,66	-0,171540	
14,388000	0,66	-0,183390	
14,399000	0,66	-0,181110	
14,410000	0,66	-0,182910	
14,421000	0,66	-0,201210	
14,432000	0,66	-0,204690	
14,443000	0,66	-0,184200	
14,454000	0,66	-0,171460	
14,465000	0,66	-0,185210	
14,476000	0,66	-0,203290	
14,487000	0,66	-0,208160	
14,498000	0,66	-0,219170	
14,509000	0,66	-0,225210	
14,520000	0,66	-0,217150	
14,531000	0,66	-0,213870	
14,542000	0,66	-0,208410	
14,553000	0,66	-0,204350	
14,564000	0,66	-0,212710	
14,575000	0,66	-0,201400	
14,586000	0,66	-0,195140	
14,597000	0,66	-0,174100	
14,608000	0,66	-0,166260	
14,619000	0,66	-0,173640	
14,630000	0,66	-0,186540	
14,641000	0,66	-0,179920	
14,652000	0,66	-0,193480	
14,663000	0,66	-0,193000	
14,674000	0,66	-0,200780	
14,685000	0,66	-0,198580	
14,696000	0,66	-0,190400	
14,707000	0,66	-0,195790	
14,718000	0,66	-0,206490	
14,729000	0,66	-0,206510	
14,740000	0,66	-0,206070	
14,751000	0,66	-0,195870	
14,762000	0,66	-0,187590	
14,773000	0,66	-0,179380	
14,784000	0,66	-0,200840	
14,795000	0,66	-0,226090	
14,806000	0,66	-0,239740	
14,817000	0,66	-0,242960	
14,828000	0,66	-0,249010	
14,839000	0,66	-0,254190	
14,850000	0,66	-0,255570	
14,861000	0,66	-0,240430	
14,872000	0,66	-0,229460	
14,883000	0,66	-0,227890	
14,894000	0,66	-0,225070	
14,905000	0,66	-0,225310	
14,916000	0,66	-0,224220	
14,927000	0,66	-0,222720	
14,938000	0,66	-0,230940	
14,949000	0,66	-0,229310	
14,960000	0,66	-0,235680	
14,971000	0,66	-0,244030	
14,982000	0,66	-0,242250	
14,993000	0,66	-0,233050	
15,004000	0,66	-0,220880	
15,015000	0,66	-0,217600	
15,026000	0,66	-0,213270	
15,037000	0,66	-0,214510	
15,048000	0,66	-0,221980	
15,059000	0,66	-0,229330	
15,070000	0,66	-0,238900	
15,081000	0,66	-0,243610	
15,092000	0,66	-0,243070	
15,103000	0,66	-0,224820	
15,114000	0,66	-0,235760	
15,125000	0,66	-0,243760	
15,136000	0,66	-0,214540	
15,147000	0,66	-0,199700	
15,158000	0,66	-0,204940	
15,169000	0,66	-0,214940	
15,180000	0,66	-0,218490	
15,191000	0,66	-0,214540	
15,202000	0,66	-0,220470	
15,213000	0,66	-0,229430	
15,224000	0,66	-0,227910	
15,235000	0,66	-0,229930	
15,246000	0,66	-0,241870	
15,257000	0,66	-0,240030	
15,268000	0,66	-0,253220	
15,279000	0,66	-0,246780	
15,290000	0,66	-0,249220	
15,301000	0,66	-0,240490	
15,312000	0,66	-0,234990	
15,323000	0,66	-0,228870	
15,334000	0,66	-0,229290	
15,345000	0,66	-0,229470	
15,356000	0,66	-0,230080	
15,367000	0,66	-0,229300	
15,378000	0,66	-0,235470	
15,389000	0,66	-0,221360	
15,400000	0,66	-0,220990	
15,411000	0,66	-0,222070	
15,422000	0,66	-0,216620	
15,433000	0,66	-0,205280	
15,444000	0,66	-0,210200	
15,455000	0,66	-0,210400	
15,466000	0,66	-0,238120	
15,477000	0,66	-0,251260	
15,488000	0,66	-0,241880	
15,499000	0,66	-0,232900	
15,510000	0,66	-0,225050	
15,521000	0,66	-0,235680	
15,532000	0,66	-0,239000	
15,543000	0,66	-0,232940	
15,554000	0,66	-0,229120	
15,565000	0,66	-0,224740	
15,576000	0,66	-0,220730	
15,587000	0,66	-0,230340	
15,598000	0,66	-0,224740	
15,609000	0,66	-0,222910	
15,620000	0,66	-0,224830	
15,631000	0,66	-0,239020	
15,642000	0,66	-0,243560	
15,653000	0,66	-0,240770	
15,664000	0,66	-0,236840	
15,675000	0,66	-0,222120	
15,686000	0,66	-0,225050	
15,697000	0,66	-0,223980	
15,708000	0,66	-0,219150	
15,719000	0,66	-0,214400	
15,730000	0,66	-0,196430	
15,741000	0,66	-0,178640	
15,752000	0,66	-0,171490	
15,763000	0,66	-0,176160	
15,774000	0,66	-0,155720	
15,785000	0,66	-0,131050	
15,796000	0,66	-0,113370	
15,807000	0,66	-0,104020	
15,818000	0,66	-0,107420	
15,829000	0,66	-0,109390	
15,840000	0,66	-0,115950	
15,851000	0,66	-0,128420	
15,862000	0,66	-0,142700	
15,873000	0,66	-0,159070	
15,884000	0,66	-0,173160	
15,895000	0,66	-0,189910	
15,906000	0,66	-0,193460	
15,917000	0,66	-0,204160	
15,928000	0,66	-0,206640	
15,939000	0,66	-0,205850	
15,950000	0,66	-0,208930	
15,961000	0,66	-0,202180	
15,972000	0,66	-0,212090	
15,983000	0,66	-0,219470	
15,994000	0,66	-0,229010	
16,005000	0,66	-0,220070	
16,016000	0,66	-0,203230	
16,027000	0,66	-0,198960	
16,038000	0,66	-0,196140	
16,049000	0,66	-0,201660	
16,060000	0,66	-0,195770	
16,071000	0,66	-0,204890	
16,082000	0,66	-0,200250	
16,093000	0,66	-0,198920	
16,104000	0,66	-0,204430	
16,115000	0,66	-0,214020	
16,126000	0,66	-0,230980	
16,137000	0,66	-0,225640	
16,148000	0,66	-0,216080	
16,159000	0,66	-0,228040	
16,170000	0,66	-0,214350	
16,181000	0,66	-0,199100	
16,192000	0,66	-0,198680	
16,203000	0,66	-0,202550	
16,214000	0,66	-0,201220	
16,225000	0,66	-0,210990	
16,236000	0,66	-0,214450	
16,247000	0,66	-0,215200	
16,258000	0,66	-0,209280	
16,269000	0,66	-0,203600	
16,280000	0,66	-0,208030	
16,291000	0,66	-0,220000	
16,302000	0,66	-0,225330	
16,313000	0,66	-0,225150	
16,324000	0,66	-0,222500	
16,335000	0,66	-0,207970	
16,346000	0,66	-0,204360	
16,357000	0,66	-0,209720	
16,368000	0,66	-0,210810	
16,379000	0,66	-0,218470	
16,390000	0,66	-0,223910	
16,401000	0,66	-0,218430	
16,412000	0,66	-0,213780	
16,423000	0,66	-0,220510	
16,434000	0,66	-0,226280	
16,445000	0,66	-0,222320	
16,456000	0,66	-0,210560	
16,467000	0,66	-0,199770	
16,478000	0,66	-0,207620	
16,489000	0,66	-0,210350	
16,500000	0,66	-0,217900	
16,511000	0,66	-0,229140	
16,522000	0,66	-0,229200	
16,533000	0,66	-0,221570	
16,544000	0,66	-0,219210	
16,555000	0,66	-0,212250	
16,566000	0,66	-0,220080	
16,577000	0,66	-0,224120	
16,588000	0,66	-0,203660	
16,599000	0,66	-0,202280	
16,610000	0,66	-0,203090	
16,621000	0,66	-0,213020	
16,632000	0,66	-0,220500	
16,643000	0,66	-0,203530	
16,654000	0,66	-0,202990	
16,665000	0,66	-0,205100	
16,676000	0,66	-0,217960	
16,687000	0,66	-0,207110	
16,698000	0,66	-0,204720	
16,709000	0,66	-0,202970	
16,720000	0,66	-0,206690	
16,731000	0,66	-0,209210	
16,742000	0,66	-0,216560	
16,753000	0,66	-0,218450	
16,764000	0,66	-0,215070	
16,775000	0,66	-0,232820	
16,786000	0,66	-0,228130	
16,797000	0,66	-0,213700	
16,808000	0,66	-0,212240	
16,819000	0,66	-0,215730	
16,830000	0,66	-0,220090	
16,841000	0,66	-0,224020	
16,852000	0,66	-0,218610	
16,863000	0,66	-0,223410	
16,874000	0,66	-0,229700	
16,885000	0,66	-0,227420	
16,896000	0,66	-0,225770	
16,907000	0,66	-0,233560	
16,918000	0,66	-0,229960	
16,929000	0,66	-0,212190	
16,940000	0,66	-0,213900	
16,951000	0,66	-0,219170	
16,962000	0,66	-0,214740	
16,973000	0,66	-0,191190	
16,984000	0,66	-0,184400	
16,995000	0,66	-0,208350	
17,006000	0,66	-0,213320	
17,017000	0,66	-0,217360	
17,028000	0,66	-0,222730	
17,039000	0,66	-0,217250	
17,050000	0,66	-0,234900	
17,061000	0,66	-0,238330	
17,072000	0,66	-0,218910	
17,083000	0,66	-0,217720	
17,094000	0,66	-0,208680	
17,105000	0,66	-0,198260	
17,116000	0,66	-0,207770	
17,127000	0,66	-0,217960	
17,138000	0,66	-0,226250	
17,149000	0,66	-0,232930	
17,160000	0,66	-0,236240	
17,171000	0,66	-0,231090	
17,182000	0,66	-0,223910	
17,193000	0,66	-0,225590	
17,204000	0,66	-0,229360	
17,215000	0,66	-0,228900	
17,226000	0,66	-0,244860	
17,237000	0,66	-0,254770	
17,248000	0,66	-0,258560	
17,259000	0,66	-0,246580	
17,270000	0,66	-0,239060	
17,281000	0,66	-0,235310	
17,292000	0,66	-0,241510	
17,303000	0,66	-0,233780	
17,314000	0,66	-0,225690	
17,325000	0,66	-0,225100	
17,336000	0,66	-0,219310	
17,347000	0,66	-0,221350	
17,358000	0,66	-0,231230	
17,369000	0,66	-0,227510	
17,380000	0,66	-0,241360	
17,391000	0,66	-0,246970	
17,402000	0,66	-0,239720	
17,413000	0,66	-0,217500	
17,424000	0,66	-0,215720	
17,435000	0,66	-0,232340	
17,446000	0,66	-0,250260	
17,457000	0,66	-0,246070	
17,468000	0,66	-0,232070	
17,479000	0,66	-0,230930	
17,490000	0,66	-0,244390	
17,501000	0,66	-0,265840	
17,512000	0,66	-0,252170	
17,523000	0,66	-0,246420	
17,534000	0,66	-0,244970	
17,545000	0,66	-0,222390	
17,556000	0,66	-0,233400	
17,567000	0,66	-0,232510	
17,578000	0,66	-0,239030	
17,589000	0,66	-0,235290	
17,600000	0,66	-0,236400	
17,611000	0,66	-0,237260	
17,622000	0,66	-0,225700	
17,633000	0,66	-0,212280	
17,644000	0,66	-0,226430	
17,655000	0,66	-0,225840	
17,666000	0,66	-0,231580	
17,677000	0,66	-0,215780	
17,688000	0,66	-0,218640	
17,699000	0,66	-0,237950	
17,710000	0,66	-0,239740	
17,721000	0,66	-0,239020	
17,732000	0,66	-0,235110	
17,743000	0,66	-0,234120	
17,754000	0,66	-0,235020	
17,765000	0,66	-0,241080	
17,776000	0,66	-0,247630	
17,787000	0,66	-0,248000	
17,798000	0,66	-0,240570	
17,809000	0,66	-0,233670	
17,820000	0,66	-0,228900	
17,831000	0,66	-0,234310	
17,842000	0,66	-0,241460	
17,853000	0,66	-0,234810	
17,864000	0,66	-0,244000	
17,875000	0,66	-0,244830	
17,886000	0,66	-0,237290	
17,897000	0,66	-0,239510	
17,908000	0,66	-0,239910	
17,919000	0,66	-0,233500	
17,930000	0,66	-0,224850	
17,941000	0,66	-0,214460	
17,952000	0,66	-0,214520	
17,963000	0,66	-0,209900	
17,974000	0,66	-0,231510	
17,985000	0,66	-0,239230	
17,996000	0,66	-0,225540	
18,007000	0,66	-0,213280	
18,018000	0,66	-0,201260	
18,029000	0,66	-0,203110	
18,040000	0,66	-0,196660	
18,051000	0,66	-0,215590	
18,062000	0,66	-0,203040	
18,073000	0,66	-0,206000	
18,084000	0,66	-0,217530	
18,095000	0,66	-0,224000	
18,106000	0,66	-0,228470	
18,117000	0,66	-0,221730	
18,128000	0,66	-0,231570	
18,139000	0,66	-0,223500	
18,150000	0,66	-0,218020	
18,161000	0,66	-0,214400	
18,172000	0,66	-0,224360	
18,183000	0,66	-0,213280	
18,194000	0,66	-0,218080	
18,205000	0,66	-0,213280	
18,216000	0,66	-0,216180	
18,227000	0,66	-0,229940	
18,238000	0,66	-0,234620	
18,249000	0,66	-0,235530	
18,260000	0,66	-0,229890	
18,271000	0,66	-0,224580	
18,282000	0,66	-0,223780	
18,293000	0,66	-0,234880	
18,304000	0,66	-0,237500	
18,315000	0,66	-0,215560	
18,326000	0,66	-0,206330	
18,337000	0,66	-0,217220	
18,348000	0,66	-0,226560	
18,359000	0,66	-0,228890	
18,370000	0,66	-0,237580	
18,381000	0,66	-0,236710	
18,392000	0,66	-0,224050	
18,403000	0,66	-0,212210	
18,414000	0,66	-0,208170	
18,425000	0,66	-0,210430	
18,436000	0,66	-0,203280	
18,447000	0,66	-0,201890	
18,458000	0,66	-0,208610	
18,469000	0,66	-0,229280	
18,480000	0,66	-0,235870	
18,491000	0,66	-0,220270	
18,502000	0,66	-0,215190	
18,513000	0,66	-0,215390	
18,524000	0,66	-0,218910	
18,535000	0,66	-0,220780	
18,546000	0,66	-0,215260	
18,557000	0,66	-0,215380	
18,568000	0,66	-0,220560	
18,579000	0,66	-0,225190	
18,590000	0,66	-0,226780	
18,601000	0,66	-0,230580	
18,612000	0,66	-0,227570	
18,623000	0,66	-0,221000	
18,634000	0,66	-0,221170	
18,645000	0,66	-0,234360	
18,656000	0,66	-0,225890	
18,667000	0,66	-0,229830	
18,678000	0,66	-0,225050	
18,689000	0,66	-0,219640	
18,700000	0,66	-0,219790	
18,711000	0,66	-0,219630	
18,722000	0,66	-0,233480	
18,733000	0,66	-0,230750	
18,744000	0,66	-0,242910	
18,755000	0,66	-0,231540	
18,766000	0,66	-0,235460	
18,777000	0,66	-0,225820	
18,788000	0,66	-0,219570	
18,799000	0,66	-0,213770	
18,810000	0,66	-0,204240	
18,821000	0,66	-0,205980	
18,832000	0,66	-0,199300	
18,843000	0,66	-0,198500	
18,854000	0,66	-0,202420	
18,865000	0,66	-0,195120	
18,876000	0,66	-0,195890	
18,887000	0,66	-0,203440	
18,898000	0,66	-0,210150	
18,909000	0,66	-0,215600	
18,920000	0,66	-0,217760	
18,931000	0,66	-0,203490	
18,942000	0,66	-0,199820	
18,953000	0,66	-0,211390	
18,964000	0,66	-0,219890	
18,975000	0,66	-0,212500	
18,986000	0,66	-0,211450	
18,997000	0,66	-0,210440	
19,008000	0,66	-0,217420	
19,019000	0,66	-0,206550	
19,030000	0,66	-0,213480	
19,041000	0,66	-0,210210	
19,052000	0,66	-0,215490	
19,063000	0,66	-0,218030	
19,074000	0,66	-0,209290	
19,085000	0,66	-0,205590	
19,096000	0,66	-0,205780	
19,107000	0,66	-0,211450	
19,118000	0,66	-0,207520	
19,129000	0,66	-0,208250	
19,140000	0,66	-0,211950	
19,151000	0,66	-0,207500	
19,162000	0,66	-0,211250	
19,173000	0,66	-0,222840	
19,184000	0,66	-0,235100	
19,195000	0,66	-0,240740	
19,206000	0,66	-0,227500	
19,217000	0,66	-0,213870	
19,228000	0,66	-0,214380	
19,239000	0,66	-0,220100	
19,250000	0,66	-0,224540	
19,261000	0,66	-0,219540	
19,272000	0,66	-0,218750	
19,283000	0,66	-0,223890	
19,294000	0,66	-0,223930	
19,305000	0,66	-0,223870	
19,316000	0,66	-0,219440	
19,327000	0,66	-0,238220	
19,338000	0,66	-0,246570	
19,349000	0,66	-0,224360	
19,360000	0,66	-0,213370	
19,371000	0,66	-0,222080	
19,382000	0,66	-0,236860	
19,393000	0,66	-0,231840	
19,404000	0,66	-0,227850	
19,415000	0,66	-0,241380	
19,426000	0,66	-0,249730	
19,437000	0,66	-0,241750	
19,448000	0,66	-0,252500	
19,459000	0,66	-0,250880	
19,470000	0,66	-0,240490	
19,481000	0,66	-0,244490	
19,492000	0,66	-0,224230	
19,503000	0,66	-0,228240	
19,514000	0,66	-0,232520	
19,525000	0,66	-0,236420	
19,536000	0,66	-0,225070	
19,547000	0,66	-0,217290	
19,558000	0,66	-0,215080	
19,569000	0,66	-0,216230	
19,580000	0,66	-0,219330	
19,591000	0,66	-0,214770	
19,602000	0,66	-0,203630	
19,613000	0,66	-0,194330	
19,624000	0,66	-0,207520	
19,635000	0,66	-0,208430	
19,646000	0,66	-0,222380	
19,657000	0,66	-0,234720	
19,668000	0,66	-0,235750	
19,679000	0,66	-0,243290	
19,690000	0,66	-0,250180	
19,701000	0,66	-0,242110	
19,712000	0,66	-0,234630	
19,723000	0,66	-0,241680	
19,734000	0,66	-0,235260	
19,745000	0,66	-0,233310	
19,756000	0,66	-0,223900	
19,767000	0,66	-0,207140	
19,778000	0,66	-0,194640	
19,789000	0,66	-0,204590	
19,800000	0,66	-0,209250	
19,811000	0,66	-0,205480	
19,822000	0,66	-0,206580	
19,833000	0,66	-0,224180	
19,844000	0,66	-0,230920	
19,855000	0,66	-0,219610	
19,866000	0,66	-0,212050	
19,877000	0,66	-0,206950	
19,888000	0,66	-0,213320	
19,899000	0,66	-0,211270	
19,910000	0,66	-0,209260	
19,921000	0,66	-0,219600	
19,932000	0,66	-0,208090	
19,943000	0,66	-0,192320	
19,954000	0,66	-0,195220	
19,965000	0,66	-0,213610	
19,976000	0,66	-0,212500	
19,987000	0,66	-0,216770	
19,998000	0,66	-0,220260	
20,009000	0,66	-0,223690	
20,020000	0,66	-0,226040	
20,031000	0,66	-0,207950	
20,042000	0,66	-0,214520	
20,053000	0,66	-0,207770	
20,064000	0,66	-0,196830	
20,075000	0,66	-0,200090	
20,086000	0,66	-0,203010	
20,097000	0,66	-0,202480	
20,108000	0,66	-0,203140	
20,119000	0,66	-0,205840	
20,130000	0,66	-0,216310	
20,141000	0,66	-0,224220	
20,152000	0,66	-0,213330	
20,163000	0,66	-0,203690	
20,174000	0,66	-0,206660	
20,185000	0,66	-0,208610	
20,196000	0,66	-0,202750	
20,207000	0,66	-0,209460	
20,218000	0,66	-0,207950	
20,229000	0,66	-0,227100	
20,240000	0,66	-0,233590	
20,251000	0,66	-0,221880	
20,262000	0,66	-0,222500	
20,273000	0,66	-0,230520	
20,284000	0,66	-0,228170	
20,295000	0,66	-0,221550	
20,306000	0,66	-0,218680	
20,317000	0,66	-0,218990	
20,328000	0,66	-0,217410	
20,339000	0,66	-0,205780	
20,350000	0,66	-0,211400	
20,361000	0,66	-0,231970	
20,372000	0,66	-0,247080	
20,383000	0,66	-0,242130	
20,394000	0,66	-0,226980	
20,405000	0,66	-0,213790	
20,416000	0,66	-0,193420	
20,427000	0,66	-0,188620	
20,438000	0,66	-0,195770	
20,449000	0,66	-0,203970	
20,460000	0,66	-0,230180	
20,471000	0,66	-0,237210	
20,482000	0,66	-0,217460	
20,493000	0,66	-0,209460	
20,504000	0,66	-0,202310	
20,515000	0,66	-0,198650	
20,526000	0,66	-0,198240	
20,537000	0,66	-0,204240	
20,548000	0,66	-0,208500	
20,559000	0,66	-0,197800	
20,570000	0,66	-0,202050	
20,581000	0,66	-0,215170	
20,592000	0,66	-0,212550	
20,603000	0,66	-0,216430	
20,614000	0,66	-0,218130	
20,625000	0,66	-0,204630	
20,636000	0,66	-0,203270	
20,647000	0,66	-0,204720	
20,658000	0,66	-0,198970	
20,669000	0,66	-0,201490	
20,680000	0,66	-0,211260	
20,691000	0,66	-0,215790	
20,702000	0,66	-0,208370	
20,713000	0,66	-0,208750	
20,724000	0,66	-0,210860	
20,735000	0,66	-0,218400	
20,746000	0,66	-0,215130	
20,757000	0,66	-0,200160	
20,768000	0,66	-0,200090	
20,779000	0,66	-0,217690	
20,790000	0,66	-0,213940	
20,801000	0,66	-0,220590	
20,812000	0,66	-0,225190	
20,823000	0,66	-0,222440	
20,834000	0,66	-0,218030	
20,845000	0,66	-0,204280	
20,856000	0,66	-0,196510	
20,867000	0,66	-0,200970	
20,878000	0,66	-0,214790	
20,889000	0,66	-0,212180	
20,900000	0,66	-0,197260	
20,911000	0,66	-0,188650	
20,922000	0,66	-0,199700	
20,933000	0,66	-0,208070	
20,944000	0,66	-0,205090	
20,955000	0,66	-0,204280	
20,966000	0,66	-0,212500	
20,977000	0,66	-0,223590	
20,988000	0,66	-0,236950	
20,999000	0,66	-0,237610	
21,010000	0,66	-0,224160	
21,021000	0,66	-0,205370	
21,032000	0,66	-0,195230	
21,043000	0,66	-0,196430	
21,054000	0,66	-0,204150	
21,065000	0,66	-0,201480	
21,076000	0,66	-0,200620	
21,087000	0,66	-0,207810	
21,098000	0,66	-0,214420	
21,109000	0,66	-0,200690	
21,120000	0,66	-0,182870	
21,131000	0,66	-0,189310	
21,142000	0,66	-0,183400	
21,153000	0,66	-0,173670	
21,164000	0,66	-0,174050	
21,175000	0,66	-0,160830	
21,186000	0,66	-0,149210	
21,197000	0,66	-0,146080	
21,208000	0,66	-0,142550	
21,219000	0,66	-0,137730	
21,230000	0,66	-0,142310	
21,241000	0,66	-0,140190	
21,252000	0,66	-0,144240	
21,263000	0,66	-0,157320	
21,274000	0,66	-0,158140	
21,285000	0,66	-0,159100	
21,296000	0,66	-0,169290	
21,307000	0,66	-0,174520	
21,318000	0,66	-0,173900	
21,329000	0,66	-0,180400	
21,340000	0,66	-0,195910	
21,351000	0,66	-0,206620	
21,362000	0,66	-0,196840	
21,373000	0,66	-0,198600	
21,384000	0,66	-0,206680	
21,395000	0,66	-0,191000	
21,406000	0,66	-0,192380	
21,417000	0,66	-0,206910	
21,428000	0,66	-0,212280	
21,439000	0,66	-0,211790	
21,450000	0,66	-0,223250	
21,461000	0,66	-0,226910	
21,472000	0,66	-0,224020	
21,483000	0,66	-0,220720	
21,494000	0,66	-0,218660	
21,505000	0,66	-0,212200	
21,516000	0,66	-0,215710	
21,527000	0,66	-0,202120	
21,538000	0,66	-0,196090	
21,549000	0,66	-0,201790	
21,560000	0,66	-0,207300	
21,571000	0,66	-0,209350	
21,582000	0,66	-0,204690	
21,593000	0,66	-0,206250	
21,604000	0,66	-0,198290	
21,615000	0,66	-0,215850	
21,626000	0,66	-0,228480	
21,637000	0,66	-0,217530	
21,648000	0,66	-0,216200	
21,659000	0,66	-0,202790	
21,670000	0,66	-0,208960	
21,681000	0,66	-0,214000	
21,692000	0,66	-0,229560	
21,703000	0,66	-0,233270	
21,714000	0,66	-0,231100	
21,725000	0,66	-0,228170	
21,736000	0,66	-0,232850	
21,747000	0,66	-0,238600	
21,758000	0,66	-0,230450	
21,769000	0,66	-0,225400	
21,780000	0,66	-0,221480	
21,791000	0,66	-0,209520	
21,802000	0,66	-0,217140	
21,813000	0,66	-0,218470	
21,824000	0,66	-0,214950	
21,835000	0,66	-0,215780	
21,846000	0,66	-0,227260	
21,857000	0,66	-0,231560	
21,868000	0,66	-0,220600	
21,879000	0,66	-0,224740	
21,890000	0,66	-0,238100	
21,901000	0,66	-0,234640	
21,912000	0,66	-0,234350	
21,923000	0,66	-0,234750	
21,934000	0,66	-0,235620	
21,945000	0,66	-0,235200	
21,956000	0,66	-0,216690	
21,967000	0,66	-0,209670	
21,978000	0,66	-0,226750	
21,989000	0,66	-0,224040	
22,000000	0,66	-0,206660	
22,011000	0,66	-0,204780	
22,022000	0,66	-0,200200	
22,033000	0,66	-0,196170	
22,044000	0,66	-0,206100	
22,055000	0,66	-0,207300	
22,066000	0,66	-0,207940	
22,077000	0,66	-0,207720	
22,088000	0,66	-0,206370	
22,099000	0,66	-0,226640	
22,110000	0,66	-0,221590	
22,121000	0,66	-0,227240	
22,132000	0,66	-0,243820	
22,143000	0,66	-0,237180	
22,154000	0,66	-0,227900	
22,165000	0,66	-0,231900	
22,176000	0,66	-0,227940	
22,187000	0,66	-0,214260	
22,198000	0,66	-0,225220	
22,209000	0,66	-0,235850	
22,220000	0,66	-0,238070	
22,231000	0,66	-0,229110	
22,242000	0,66	-0,236200	
22,253000	0,66	-0,224220	
22,264000	0,66	-0,225570	
22,275000	0,66	-0,221900	
22,286000	0,66	-0,220320	
22,297000	0,66	-0,209110	
22,308000	0,66	-0,208270	
22,319000	0,66	-0,218600	
22,330000	0,66	-0,221620	
22,341000	0,66	-0,214450	
22,352000	0,66	-0,211460	
22,363000	0,66	-0,230280	
22,374000	0,66	-0,236910	
22,385000	0,66	-0,230140	
22,396000	0,66	-0,228870	
22,407000	0,66	-0,236490	
22,418000	0,66	-0,237850	
22,429000	0,66	-0,233720	
22,440000	0,66	-0,220770	
22,451000	0,66	-0,223780	
22,462000	0,66	-0,247220	
22,473000	0,66	-0,255390	
22,484000	0,66	-0,244740	
22,495000	0,66	-0,231620	
22,506000	0,66	-0,225550	
22,517000	0,66	-0,215840	
22,528000	0,66	-0,222870	
22,539000	0,66	-0,224620	
22,550000	0,66	-0,219150	
22,561000	0,66	-0,208330	
22,572000	0,66	-0,230420	
22,583000	0,66	-0,246130	
22,594000	0,66	-0,250900	
22,605000	0,66	-0,247310	
22,616000	0,66	-0,246740	
22,627000	0,66	-0,248510	
22,638000	0,66	-0,228900	
22,649000	0,66	-0,223670	
22,660000	0,66	-0,225620	
22,671000	0,66	-0,216420	
22,682000	0,66	-0,208980	
22,693000	0,66	-0,207490	
22,704000	0,66	-0,214680	
22,715000	0,66	-0,217880	
22,726000	0,66	-0,206690	
22,737000	0,66	-0,197530	
22,748000	0,66	-0,197680	
22,759000	0,66	-0,182680	
22,770000	0,66	-0,170700	
22,781000	0,66	-0,149200	
22,792000	0,66	-0,135020	
22,803000	0,66	-0,122500	
22,814000	0,66	-0,104970	
22,825000	0,66	-0,096290	
22,836000	0,66	-0,084630	
22,847000	0,66	-0,059770	
22,858000	0,66	-0,054210	
22,869000	0,66	-0,072590	
22,880000	0,66	-0,068150	
22,891000	0,66	-0,073260	
22,902000	0,66	-0,074810	
22,913000	0,66	-0,075750	
22,924000	0,66	-0,093370	
22,935000	0,66	-0,105000	
22,946000	0,66	-0,132790	
22,957000	0,66	-0,139610	
22,968000	0,66	-0,145070	
22,979000	0,66	-0,153160	
22,990000	0,66	-0,159120	
23,001000	0,66	-0,177360	
23,012000	0,66	-0,188230	
23,023000	0,66	-0,198690	
23,034000	0,66	-0,205380	
23,045000	0,66	-0,206270	
23,056000	0,66	-0,199750	
23,067000	0,66	-0,189770	
23,078000	0,66	-0,203330	
23,089000	0,66	-0,211300	
23,100000	0,66	-0,221400	
23,111000	0,66	-0,224260	
23,122000	0,66	-0,227600	
23,133000	0,66	-0,224010	
23,144000	0,66	-0,222230	
23,155000	0,66	-0,208210	
23,166000	0,66	-0,202220	
23,177000	0,66	-0,211490	
23,188000	0,66	-0,203020	
23,199000	0,66	-0,204840	
23,210000	0,66	-0,195550	
23,221000	0,66	-0,202890	
23,232000	0,66	-0,199230	
23,243000	0,66	-0,192100	
23,254000	0,66	-0,193030	
23,265000	0,66	-0,201080	
23,276000	0,66	-0,213260	
23,287000	0,66	-0,227080	
23,298000	0,66	-0,229090	
23,309000	0,66	-0,219380	
23,320000	0,66	-0,209260	
23,331000	0,66	-0,203850	
23,342000	0,66	-0,202650	
23,353000	0,66	-0,206820	
23,364000	0,66	-0,210510	
23,375000	0,66	-0,206720	
23,386000	0,66	-0,193800	
23,397000	0,66	-0,184090	
23,408000	0,66	-0,184830	
23,419000	0,66	-0,194620	
23,430000	0,66	-0,208520	
23,441000	0,66	-0,209050	
23,452000	0,66	-0,204860	
23,463000	0,66	-0,201660	
23,474000	0,66	-0,197580	
23,485000	0,66	-0,195240	
23,496000	0,66	-0,188320	
23,507000	0,66	-0,189730	
23,518000	0,66	-0,194780	
23,529000	0,66	-0,185490	
23,540000	0,66	-0,169220	
23,551000	0,66	-0,171070	
23,562000	0,66	-0,181230	
23,573000	0,66	-0,179660	
23,584000	0,66	-0,163130	
23,595000	0,66	-0,157770	
23,606000	0,66	-0,161800	
23,617000	0,66	-0,160450	
23,628000	0,66	-0,166110	
23,639000	0,66	-0,167950	
23,650000	0,66	-0,159720	
23,661000	0,66	-0,147950	
23,672000	0,66	-0,139250	
23,683000	0,66	-0,121860	
23,694000	0,66	-0,136580	
23,705000	0,66	-0,133260	
23,716000	0,66	-0,129400	
23,727000	0,66	-0,117740	
23,738000	0,66	-0,106210	
23,749000	0,66	-0,089130	
23,760000	0,66	-0,077650	
23,771000	0,66	-0,047360	
23,782000	0,66	-0,016030	
23,793000	0,66	0,001320	
23,804000	0,66	0,006040	
23,815000	0,66	0,042970	
23,826000	0,66	0,067570	
23,837000	0,66	0,090810	
23,848000	0,66	0,113290	
23,859000	0,66	0,136700	
23,870000	0,66	0,166320	
23,881000	0,66	0,188400	
23,892000	0,66	0,224260	
23,903000	0,66	0,292280	
23,914000	0,66	0,339770	
23,925000	0,66	0,385020	
23,936000	0,66	0,441930	
23,947000	0,66	0,498440	
23,958000	0,66	0,533850	
23,969000	0,66	0,543800	
23,980000	0,66	0,553670	
23,991000	0,66	0,573880	
24,002000	0,66	0,571230	
24,013000	0,66	0,536830	
24,024000	0,66	0,505860	
24,035000	0,66	0,494500	
24,046000	0,66	0,492580	
24,057000	0,66	0,480660	
24,068000	0,66	0,496060	
24,079000	0,66	0,548990	
24,090000	0,66	0,631170	
24,101000	0,66	0,843290	
24,112000	0,66	1,310170	
24,123000	0,66	2,211390	
24,134000	0,66	3,880810	
24,145000	0,66	6,797960	
24,156000	0,66	11,840870	
24,167000	0,66	20,199080	
24,178000	0,66	32,167540	
24,189000	0,66	46,357120	
24,200000	0,66	60,364980	
24,211000	0,66	72,374720	
24,222000	0,66	81,475550	
24,233000	0,66	87,631410	
24,244000	0,66	91,207310	
24,255000	0,66	92,643260	
24,266000	0,66	92,367500	
24,277000	0,66	90,787770	
24,288000	0,66	88,222860	
24,299000	0,66	84,874450	
24,310000	0,66	81,034370	
24,321000	0,66	76,836710	
24,332000	0,66	72,437900	
24,343000	0,66	67,921670	
24,354000	0,66	63,371520	
24,365000	0,66	58,847720	
24,376000	0,66	54,395520	
24,387000	0,66	50,059310	
24,398000	0,66	45,912260	
24,409000	0,66	41,963780	
24,420000	0,66	38,218320	
24,431000	0,66	34,760500	
24,442000	0,66	31,592910	
24,453000	0,66	28,743800	
24,464000	0,66	26,174580	
24,475000	0,66	23,862420	
24,486000	0,66	21,807510	
24,497000	0,66	19,968200	
24,508000	0,66	18,330540	
24,519000	0,66	16,837330	
24,530000	0,66	15,459000	
24,541000	0,66	14,154050	
24,552000	0,66	12,931820	
24,563000	0,66	11,778090	
24,574000	0,66	10,647690	
24,585000	0,66	9,574750	
24,596000	0,66	8,582520	
24,607000	0,66	7,657780	
24,618000	0,66	6,807330	
24,629000	0,66	6,043980	
24,640000	0,66	5,350800	
24,651000	0,66	4,754420	
24,662000	0,66	4,227700	
24,673000	0,66	3,764500	
24,684000	0,66	3,373300	
24,695000	0,66	3,039890	
24,706000	0,66	2,744610	
24,717000	0,66	2,490310	
24,728000	0,66	2,267430	
24,739000	0,66	2,084000	
24,750000	0,66	1,926060	
24,761000	0,66	1,769410	
24,772000	0,66	1,630830	
24,783000	0,66	1,525160	
24,794000	0,66	1,437080	
24,805000	0,66	1,348420	
24,816000	0,66	1,259310	
24,827000	0,66	1,171260	
24,838000	0,66	1,082810	
24,849000	0,66	1,000880	
24,860000	0,66	0,906740	
24,871000	0,66	0,815990	
24,882000	0,66	0,743410	
24,893000	0,66	0,659650	
24,904000	0,66	0,574620	
24,915000	0,66	0,512340	
24,926000	0,66	0,469230	
24,937000	0,66	0,421460	
24,948000	0,66	0,380410	
24,959000	0,66	0,344490	
24,970000	0,66	0,311980	
24,981000	0,66	0,291360	
24,992000	0,66	0,278670	
25,003000	0,66	0,256670	
25,014000	0,66	0,250340	
25,025000	0,66	0,244950	
25,036000	0,66	0,223180	
25,047000	0,66	0,215560	
25,058000	0,66	0,201220	
25,069000	0,66	0,193310	
25,080000	0,66	0,170490	
25,091000	0,66	0,144580	
25,102000	0,66	0,124040	
25,113000	0,66	0,115340	
25,124000	0,66	0,097330	
25,135000	0,66	0,088970	
25,146000	0,66	0,088650	
25,157000	0,66	0,075110	
25,168000	0,66	0,054510	
25,179000	0,66	0,063670	
25,190000	0,66	0,071680	
25,201000	0,66	0,066290	
25,212000	0,66	0,077290	
25,223000	0,66	0,085030	
25,234000	0,66	0,091200	
25,245000	0,66	0,090210	
25,256000	0,66	0,094470	
25,267000	0,66	0,115690	
25,278000	0,66	0,108740	
25,289000	0,66	0,121700	
25,300000	0,66	0,137810	
25,311000	0,66	0,129500	
25,322000	0,66	0,137350	
25,333000	0,66	0,163540	
25,344000	0,66	0,167790	
25,355000	0,66	0,153910	
25,366000	0,66	0,148360	
25,377000	0,66	0,148280	
25,388000	0,66	0,150180	
25,399000	0,66	0,141970	
25,410000	0,66	0,120580	
25,421000	0,66	0,101470	
25,432000	0,66	0,086750	
25,443000	0,66	0,075300	
25,454000	0,66	0,077500	
25,465000	0,66	0,068940	
25,476000	0,66	0,038370	
25,487000	0,66	0,010100	
25,498000	0,66	-0,021540	
25,509000	0,66	-0,039550	
25,520000	0,66	-0,039510	
25,531000	0,66	-0,041100	
25,542000	0,66	-0,051520	
25,553000	0,66	-0,084110	
25,564000	0,66	-0,083810	
25,575000	0,66	-0,083120	
25,586000	0,66	-0,093680	
25,597000	0,66	-0,095660	
25,608000	0,66	-0,099260	
25,619000	0,66	-0,110140	
25,630000	0,66	-0,109940	
25,641000	0,66	-0,127520	
25,652000	0,66	-0,120080	
25,663000	0,66	-0,117580	
25,674000	0,66	-0,115820	
25,685000	0,66	-0,129880	
25,696000	0,66	-0,137070	
25,707000	0,66	-0,131460	
25,718000	0,66	-0,133640	
25,729000	0,66	-0,131930	
25,740000	0,66	-0,134520	
25,751000	0,66	-0,154800	
25,762000	0,66	-0,175390	
25,773000	0,66	-0,176330	
25,784000	0,66	-0,175490	
25,795000	0,66	-0,165410	
25,806000	0,66	-0,156730	
25,817000	0,66	-0,172160	
25,828000	0,66	-0,173800	
25,839000	0,66	-0,186300	
25,850000	0,66	-0,186820	
25,861000	0,66	-0,162670	
25,872000	0,66	-0,160460	
25,883000	0,66	-0,179060	
25,894000	0,66	-0,179090	
25,905000	0,66	-0,172820	
25,916000	0,66	-0,169320	
25,927000	0,66	-0,157380	
25,938000	0,66	-0,149690	
25,949000	0,66	-0,148480	
25,960000	0,66	-0,160510	
25,971000	0,66	-0,172160	
25,982000	0,66	-0,179610	
25,993000	0,66	-0,188110	
26,004000	0,66	-0,191850	
26,015000	0,66	-0,199840	
26,026000	0,66	-0,206100	
26,037000	0,66	-0,211420	
26,048000	0,66	-0,198370	
26,059000	0,66	-0,184770	
26,070000	0,66	-0,189030	
26,081000	0,66	-0,193130	
26,092000	0,66	-0,204430	
26,103000	0,66	-0,198040	
26,114000	0,66	-0,186980	
26,125000	0,66	-0,190640	
26,136000	0,66	-0,192760	
26,147000	0,66	-0,186480	
26,158000	0,66	-0,178160	
26,169000	0,66	-0,168980	
26,180000	0,66	-0,162370	
26,191000	0,66	-0,173610	
26,202000	0,66	-0,190500	
26,213000	0,66	-0,190690	
26,224000	0,66	-0,189500	
26,235000	0,66	-0,197410	
26,246000	0,66	-0,197410	
26,257000	0,66	-0,190470	
26,268000	0,66	-0,183160	
26,279000	0,66	-0,171100	
26,290000	0,66	-0,160640	
26,301000	0,66	-0,165970	
26,312000	0,66	-0,170600	
26,323000	0,66	-0,168600	
26,334000	0,66	-0,185490	
26,345000	0,66	-0,202350	
26,356000	0,66	-0,204140	
26,367000	0,66	-0,201270	
26,378000	0,66	-0,208620	
26,389000	0,66	-0,206320	
26,400000	0,66	-0,205060	
26,411000	0,66	-0,203770	
26,422000	0,66	-0,197910	
26,433000	0,66	-0,196030	
26,444000	0,66	-0,197630	
26,455000	0,66	-0,196960	
26,466000	0,66	-0,207620	
26,477000	0,66	-0,210720	
26,488000	0,66	-0,204930	
26,499000	0,66	-0,194600	
26,510000	0,66	-0,185330	
26,521000	0,66	-0,187360	
26,532000	0,66	-0,211740	
26,543000	0,66	-0,210840	
26,554000	0,66	-0,211110	
26,565000	0,66	-0,217800	
26,576000	0,66	-0,208140	
26,587000	0,66	-0,203640	
26,598000	0,66	-0,197370	
26,609000	0,66	-0,201510	
26,620000	0,66	-0,195090	
26,631000	0,66	-0,214600	
26,642000	0,66	-0,208320	
26,653000	0,66	-0,210410	
26,664000	0,66	-0,210630	
26,675000	0,66	-0,213160	
26,686000	0,66	-0,214350	
26,697000	0,66	-0,226050	
26,708000	0,66	-0,221920	
26,719000	0,66	-0,214190	
26,730000	0,66	-0,216380	
26,741000	0,66	-0,224100	
26,752000	0,66	-0,202930	
26,763000	0,66	-0,184800	
26,774000	0,66	-0,184950	
26,785000	0,66	-0,182220	
26,796000	0,66	-0,189980	
26,807000	0,66	-0,202120	
26,818000	0,66	-0,197420	
26,829000	0,66	-0,184470	
26,840000	0,66	-0,177310	
26,851000	0,66	-0,180710	
26,862000	0,66	-0,192440	
26,873000	0,66	-0,201720	
26,884000	0,66	-0,200340	
26,895000	0,66	-0,202160	
26,906000	0,66	-0,210270	
26,917000	0,66	-0,216960	
26,928000	0,66	-0,227570	
26,939000	0,66	-0,228530	
26,950000	0,66	-0,224650	
26,961000	0,66	-0,228840	
26,972000	0,66	-0,235230	
26,983000	0,66	-0,232250	
26,994000	0,66	-0,224710	
27,005000	0,66	-0,220870	
27,016000	0,66	-0,215080	
27,027000	0,66	-0,200380	
27,038000	0,66	-0,200660	
27,049000	0,66	-0,202110	
27,060000	0,66	-0,209420	
27,071000	0,66	-0,216230	
27,082000	0,66	-0,214340	
27,093000	0,66	-0,216300	
27,104000	0,66	-0,233860	
27,115000	0,66	-0,233160	
27,126000	0,66	-0,220400	
27,137000	0,66	-0,226570	
27,148000	0,66	-0,238030	
27,159000	0,66	-0,238010	
27,170000	0,66	-0,241200	
27,181000	0,66	-0,239690	
27,192000	0,66	-0,231000	
27,203000	0,66	-0,229320	
27,214000	0,66	-0,230630	
27,225000	0,66	-0,210200	
27,236000	0,66	-0,198380	
27,247000	0,66	-0,195670	
27,258000	0,66	-0,199960	
27,269000	0,66	-0,212810	
27,280000	0,66	-0,217830	
27,291000	0,66	-0,213390	
27,302000	0,66	-0,201680	
27,313000	0,66	-0,204200	
27,324000	0,66	-0,204840	
27,335000	0,66	-0,224600	
27,346000	0,66	-0,245780	
27,357000	0,66	-0,241940	
27,368000	0,66	-0,239810	
27,379000	0,66	-0,226210	
27,390000	0,66	-0,227150	
27,401000	0,66	-0,226220	
27,412000	0,66	-0,233040	
27,423000	0,66	-0,226630	
27,434000	0,66	-0,228400	
27,445000	0,66	-0,224440	
27,456000	0,66	-0,223370	
27,467000	0,66	-0,206920	
27,478000	0,66	-0,205110	
27,489000	0,66	-0,197290	
27,500000	0,66	-0,190790	
27,511000	0,66	-0,207280	
27,522000	0,66	-0,219800	
27,533000	0,66	-0,217970	
27,544000	0,66	-0,214190	
27,555000	0,66	-0,214830	
27,566000	0,66	-0,209100	
27,577000	0,66	-0,204070	
27,588000	0,66	-0,216470	
27,599000	0,66	-0,231190	
27,610000	0,66	-0,232260	
27,621000	0,66	-0,230520	
27,632000	0,66	-0,235230	
27,643000	0,66	-0,237630	
27,654000	0,66	-0,244480	
27,665000	0,66	-0,247460	
27,676000	0,66	-0,230580	
27,687000	0,66	-0,215170	
27,698000	0,66	-0,217060	
27,709000	0,66	-0,227650	
27,720000	0,66	-0,248240	
27,731000	0,66	-0,251450	
27,742000	0,66	-0,247880	
27,753000	0,66	-0,232190	
27,764000	0,66	-0,231370	
27,775000	0,66	-0,253330	
27,786000	0,66	-0,240420	
27,797000	0,66	-0,223140	
27,808000	0,66	-0,210440	
27,819000	0,66	-0,219070	
27,830000	0,66	-0,230520	
27,841000	0,66	-0,232390	
27,852000	0,66	-0,240600	
27,863000	0,66	-0,240570	
27,874000	0,66	-0,250720	
27,885000	0,66	-0,238930	
27,896000	0,66	-0,246640	
27,907000	0,66	-0,262790	
27,918000	0,66	-0,252430	
27,929000	0,66	-0,244620	
27,940000	0,66	-0,245660	
27,951000	0,66	-0,233380	
27,962000	0,66	-0,224310	
27,973000	0,66	-0,216090	
27,984000	0,66	-0,211620	
27,995000	0,66	-0,218400	
28,006000	0,66	-0,232330	
28,017000	0,66	-0,225870	
28,028000	0,66	-0,214330	
28,039000	0,66	-0,208590	
28,050000	0,66	-0,214250	
28,061000	0,66	-0,221650	
28,072000	0,66	-0,224130	
28,083000	0,66	-0,232630	
28,094000	0,66	-0,230430	
28,105000	0,66	-0,233340	
28,116000	0,66	-0,230960	
28,127000	0,66	-0,225580	
28,138000	0,66	-0,225230	
28,149000	0,66	-0,229120	
28,160000	0,66	-0,223510	
28,171000	0,66	-0,213100	
28,182000	0,66	-0,209720	
28,193000	0,66	-0,197570	
28,204000	0,66	-0,186870	
28,215000	0,66	-0,188950	
28,226000	0,66	-0,193440	
28,237000	0,66	-0,197330	
28,248000	0,66	-0,201080	
28,259000	0,66	-0,207880	
28,270000	0,66	-0,216690	
28,281000	0,66	-0,216850	
28,292000	0,66	-0,221500	
28,303000	0,66	-0,230650	
28,314000	0,66	-0,229040	
28,325000	0,66	-0,227280	
28,336000	0,66	-0,221170	
28,347000	0,66	-0,213190	
28,358000	0,66	-0,205970	
28,369000	0,66	-0,208810	
28,380000	0,66	-0,213380	
28,391000	0,66	-0,211130	
28,402000	0,66	-0,214830	
28,413000	0,66	-0,225190	
28,424000	0,66	-0,215410	
28,435000	0,66	-0,203270	
28,446000	0,66	-0,183290	
28,457000	0,66	-0,173840	
28,468000	0,66	-0,176030	
28,479000	0,66	-0,180150	
28,490000	0,66	-0,187860	
28,501000	0,66	-0,199280	
28,512000	0,66	-0,203950	
28,523000	0,66	-0,198090	
28,534000	0,66	-0,180710	
28,545000	0,66	-0,186640	
28,556000	0,66	-0,166430	
28,567000	0,66	-0,152840	
28,578000	0,66	-0,150900	
28,589000	0,66	-0,134350	
28,600000	0,66	-0,123440	
28,611000	0,66	-0,137370	
28,622000	0,66	-0,149510	
28,633000	0,66	-0,139750	
28,644000	0,66	-0,130320	
28,655000	0,66	-0,134520	
28,666000	0,66	-0,128370	
28,677000	0,66	-0,120130	
28,688000	0,66	-0,123930	
28,699000	0,66	-0,145450	
28,710000	0,66	-0,169030	
28,721000	0,66	-0,164780	
28,732000	0,66	-0,159520	
28,743000	0,66	-0,154660	
28,754000	0,66	-0,144020	
28,765000	0,66	-0,146430	
28,776000	0,66	-0,130720	
28,787000	0,66	-0,110700	
28,798000	0,66	-0,114710	
28,809000	0,66	-0,106210	
28,820000	0,66	-0,105780	
28,831000	0,66	-0,109510	
28,842000	0,66	-0,110280	
28,853000	0,66	-0,121210	
28,864000	0,66	-0,127340	
28,875000	0,66	-0,135940	
28,886000	0,66	-0,133470	
28,897000	0,66	-0,126780	
28,908000	0,66	-0,126920	
28,919000	0,66	-0,128740	
28,930000	0,66	-0,135420	
28,941000	0,66	-0,156560	
28,952000	0,66	-0,174390	
28,963000	0,66	-0,183360	
28,974000	0,66	-0,196680	
28,985000	0,66	-0,208820	
28,996000	0,66	-0,210620	
29,007000	0,66	-0,209890	
29,018000	0,66	-0,212300	
29,029000	0,66	-0,197440	
29,040000	0,66	-0,188900	
29,051000	0,66	-0,179010	
29,062000	0,66	-0,183990	
29,073000	0,66	-0,195620	
29,084000	0,66	-0,194810	
29,095000	0,66	-0,201960	
29,106000	0,66	-0,211890	
29,117000	0,66	-0,223260	
29,128000	0,66	-0,234290	
29,139000	0,66	-0,229620	
29,150000	0,66	-0,219490	
29,161000	0,66	-0,229450	
29,172000	0,66	-0,229730	
29,183000	0,66	-0,227980	
29,194000	0,66	-0,217450	
29,205000	0,66	-0,214660	
29,216000	0,66	-0,226090	
29,227000	0,66	-0,216560	
29,238000	0,66	-0,213360	
29,249000	0,66	-0,214200	
29,260000	0,66	-0,211510	
29,271000	0,66	-0,218070	
29,282000	0,66	-0,218880	
29,293000	0,66	-0,220400	
29,304000	0,66	-0,227480	
29,315000	0,66	-0,220110	
29,326000	0,66	-0,213040	
29,337000	0,66	-0,225930	
29,348000	0,66	-0,225750	
29,359000	0,66	-0,212800	
29,370000	0,66	-0,195160	
29,381000	0,66	-0,197160	
29,392000	0,66	-0,192030	
29,403000	0,66	-0,187200	
29,414000	0,66	-0,189010	
29,425000	0,66	-0,179460	
29,436000	0,66	-0,189620	
29,447000	0,66	-0,208970	
29,458000	0,66	-0,217540	
29,469000	0,66	-0,227260	
29,480000	0,66	-0,229330	
29,491000	0,66	-0,238910	
29,502000	0,66	-0,248290	
29,513000	0,66	-0,248610	
29,524000	0,66	-0,242570	
29,535000	0,66	-0,241940	
29,546000	0,66	-0,247290	
29,557000	0,66	-0,251720	
29,568000	0,66	-0,253840	
29,579000	0,66	-0,255750	
29,590000	0,66	-0,244360	
29,601000	0,66	-0,223390	
29,612000	0,66	-0,211060	
29,623000	0,66	-0,218910	
29,634000	0,66	-0,224110	
29,645000	0,66	-0,219370	
29,656000	0,66	-0,222740	
29,667000	0,66	-0,232970	
29,678000	0,66	-0,235330	
29,689000	0,66	-0,244200	
29,700000	0,66	-0,261310	
29,711000	0,66	-0,257670	
29,722000	0,66	-0,251540	
29,733000	0,66	-0,251680	
29,744000	0,66	-0,251820	
29,755000	0,66	-0,249420	
29,766000	0,66	-0,245650	
29,777000	0,66	-0,250580	
29,788000	0,66	-0,259730	
29,799000	0,66	-0,264870	
29,810000	0,66	-0,260600	
29,821000	0,66	-0,249010	
29,832000	0,66	-0,241390	
29,843000	0,66	-0,246840	
29,854000	0,66	-0,259550	
29,865000	0,66	-0,257650	
29,876000	0,66	-0,248730	
29,887000	0,66	-0,234450	
29,898000	0,66	-0,234370	
29,909000	0,66	-0,251770	
29,920000	0,66	-0,262570	
29,931000	0,66	-0,247290	
29,942000	0,66	-0,231070	
29,953000	0,66	-0,233630	
29,964000	0,66	-0,245540	
29,975000	0,66	-0,241430	
29,986000	0,66	-0,233660	
29,997000	0,66	-0,223030	
30,008000	0,66	-0,223890	
30,019000	0,66	-0,240820	
30,030000	0,66	-0,254950	
30,041000	0,66	-0,259520	
30,052000	0,66	-0,263200	
30,063000	0,66	-0,248260	
30,074000	0,66	-0,235920	
30,085000	0,66	-0,240320	
30,096000	0,66	-0,242870	
30,107000	0,66	-0,238670	
30,118000	0,66	-0,238900	
30,129000	0,66	-0,254080	
30,140000	0,66	-0,251380	
30,151000	0,66	-0,245900	
30,162000	0,66	-0,245280	
30,173000	0,66	-0,249100	
30,184000	0,66	-0,244330	
30,195000	0,66	-0,239850	
30,206000	0,66	-0,232070	
30,217000	0,66	-0,230390	
30,228000	0,66	-0,238940	
30,239000	0,66	-0,243080	
30,250000	0,66	-0,253300	
30,261000	0,66	-0,250540	
30,272000	0,66	-0,234530	
30,283000	0,66	-0,234390	
30,294000	0,66	-0,252400	
30,305000	0,66	-0,260650	
30,316000	0,66	-0,256900	
30,327000	0,66	-0,265690	
30,338000	0,66	-0,268190	
30,349000	0,66	-0,256280	
30,360000	0,66	-0,244540	
30,371000	0,66	-0,241410	
30,382000	0,66	-0,236860	
30,393000	0,66	-0,226860	
30,404000	0,66	-0,234770	
30,415000	0,66	-0,237520	
30,426000	0,66	-0,236290	
30,437000	0,66	-0,245120	
30,448000	0,66	-0,242280	
30,459000	0,66	-0,230000	
30,470000	0,66	-0,244570	
30,481000	0,66	-0,242030	
30,492000	0,66	-0,217470	
30,503000	0,66	-0,212290	
30,514000	0,66	-0,229810	
30,525000	0,66	-0,249470	
30,536000	0,66	-0,261970	
30,547000	0,66	-0,257360	
30,558000	0,66	-0,258020	
30,569000	0,66	-0,252490	
30,580000	0,66	-0,236520	
30,591000	0,66	-0,232400	
30,602000	0,66	-0,219290	
30,613000	0,66	-0,233000	
30,624000	0,66	-0,239600	
30,635000	0,66	-0,240430	
30,646000	0,66	-0,235480	
30,657000	0,66	-0,249840	
30,668000	0,66	-0,244760	
30,679000	0,66	-0,252370	
30,690000	0,66	-0,258440	
30,701000	0,66	-0,259640	
30,712000	0,66	-0,259610	
30,723000	0,66	-0,260580	
30,734000	0,66	-0,262110	
30,745000	0,66	-0,269180	
30,756000	0,66	-0,253300	
30,767000	0,66	-0,237530	
30,778000	0,66	-0,233880	
30,789000	0,66	-0,248540	
30,800000	0,66	-0,241810	
30,811000	0,66	-0,242170	
30,822000	0,66	-0,242130	
30,833000	0,66	-0,242820	
30,844000	0,66	-0,257880	
30,855000	0,66	-0,263400	
30,866000	0,66	-0,256150	
30,877000	0,66	-0,256730	
30,888000	0,66	-0,242200	
30,899000	0,66	-0,247300	
30,910000	0,66	-0,242680	
30,921000	0,66	-0,229590	
30,932000	0,66	-0,227040	
30,943000	0,66	-0,232000	
30,954000	0,66	-0,247310	
30,965000	0,66	-0,252110	
30,976000	0,66	-0,244340	
30,987000	0,66	-0,231730	
30,998000	0,66	-0,221020	
31,009000	0,66	-0,237580	
31,020000	0,66	-0,258020	
31,031000	0,66	-0,262390	
31,042000	0,66	-0,261100	
31,053000	0,66	-0,253450	
31,064000	0,66	-0,244560	
31,075000	0,66	-0,253010	
31,086000	0,66	-0,264270	
31,097000	0,66	-0,265070	
31,108000	0,66	-0,269140	
31,119000	0,66	-0,267900	
31,130000	0,66	-0,269050	
31,141000	0,66	-0,262660	
31,152000	0,66	-0,249910	
31,163000	0,66	-0,252540	
31,174000	0,66	-0,263640	
31,185000	0,66	-0,268440	
31,196000	0,66	-0,273380	
31,207000	0,66	-0,267710	
31,218000	0,66	-0,255290	
31,229000	0,66	-0,245750	
31,240000	0,66	-0,253130	
31,251000	0,66	-0,250010	
31,262000	0,66	-0,257030	
31,273000	0,66	-0,267100	
31,284000	0,66	-0,260840	
31,295000	0,66	-0,268410	
31,306000	0,66	-0,268310	
31,317000	0,66	-0,259340	
31,328000	0,66	-0,255240	
31,339000	0,66	-0,253950	
31,350000	0,66	-0,248930	
31,361000	0,66	-0,247920	
31,372000	0,66	-0,241370	
31,383000	0,66	-0,255990	
31,394000	0,66	-0,246890	
31,405000	0,66	-0,264420	
31,416000	0,66	-0,278320	
31,427000	0,66	-0,274700	
31,438000	0,66	-0,261990	
31,449000	0,66	-0,250210	
31,460000	0,66	-0,244370	
31,471000	0,66	-0,241880	
31,482000	0,66	-0,240790	
31,493000	0,66	-0,253310	
31,504000	0,66	-0,242730	
31,515000	0,66	-0,224260	
31,526000	0,66	-0,238680	
31,537000	0,66	-0,242370	
31,548000	0,66	-0,246390	
31,559000	0,66	-0,246090	
31,570000	0,66	-0,242180	
31,581000	0,66	-0,237650	
31,592000	0,66	-0,234350	
31,603000	0,66	-0,238800	
31,614000	0,66	-0,238320	
31,625000	0,66	-0,227230	
31,636000	0,66	-0,233060	
31,647000	0,66	-0,244470	
31,658000	0,66	-0,261300	
31,669000	0,66	-0,280390	
31,680000	0,66	-0,287030	
31,691000	0,66	-0,284460	
31,702000	0,66	-0,261880	
31,713000	0,66	-0,244040	
31,724000	0,66	-0,239290	
31,735000	0,66	-0,248440	
31,746000	0,66	-0,265690	
31,757000	0,66	-0,270650	
31,768000	0,66	-0,272200	
31,779000	0,66	-0,271810	
31,790000	0,66	-0,269590	
31,801000	0,66	-0,270430	
31,812000	0,66	-0,271550	
31,823000	0,66	-0,270640	
31,834000	0,66	-0,273620	
31,845000	0,66	-0,274270	
31,856000	0,66	-0,268650	
31,867000	0,66	-0,266020	
31,878000	0,66	-0,250130	
31,889000	0,66	-0,233390	
31,900000	0,66	-0,238510	
31,911000	0,66	-0,250730	
31,922000	0,66	-0,256930	
31,933000	0,66	-0,249820	
31,944000	0,66	-0,244480	
31,955000	0,66	-0,253640	
31,966000	0,66	-0,261130	
31,977000	0,66	-0,253820	
31,988000	0,66	-0,247050	
31,999000	0,66	-0,238160	
32,010000	0,66	-0,241720	
32,021000	0,66	-0,253920	
32,032000	0,66	-0,258470	
32,043000	0,66	-0,233850	
32,054000	0,66	-0,229540	
32,065000	0,66	-0,233390	
32,076000	0,66	-0,245770	
32,087000	0,66	-0,245150	
32,098000	0,66	-0,251520	
32,109000	0,66	-0,254330	
32,120000	0,66	-0,260770	
32,131000	0,66	-0,257560	
32,142000	0,66	-0,264960	
32,153000	0,66	-0,255190	
32,164000	0,66	-0,256120	
32,175000	0,66	-0,255130	
32,186000	0,66	-0,266080	
32,197000	0,66	-0,275870	
32,208000	0,66	-0,283500	
32,219000	0,66	-0,285650	
32,230000	0,66	-0,277570	
32,241000	0,66	-0,261140	
32,252000	0,66	-0,251780	
32,263000	0,66	-0,249500	
32,274000	0,66	-0,243620	
32,285000	0,66	-0,251770	
32,296000	0,66	-0,262790	
32,307000	0,66	-0,259380	
32,318000	0,66	-0,248860	
32,329000	0,66	-0,244510	
32,340000	0,66	-0,242540	
32,351000	0,66	-0,238210	
32,362000	0,66	-0,233690	
32,373000	0,66	-0,228560	
32,384000	0,66	-0,243080	
32,395000	0,66	-0,246130	
32,406000	0,66	-0,236640	
32,417000	0,66	-0,244720	
32,428000	0,66	-0,254800	
32,439000	0,66	-0,256480	
32,450000	0,66	-0,258300	
32,461000	0,66	-0,253650	
32,472000	0,66	-0,242770	
32,483000	0,66	-0,245600	
32,494000	0,66	-0,251390	
32,505000	0,66	-0,252870	
32,516000	0,66	-0,264520	
32,527000	0,66	-0,264750	
32,538000	0,66	-0,259320	
32,549000	0,66	-0,257850	
32,560000	0,66	-0,258390	
32,571000	0,66	-0,265630	
32,582000	0,66	-0,270190	
32,593000	0,66	-0,273620	
32,604000	0,66	-0,263440	
32,615000	0,66	-0,257750	
32,626000	0,66	-0,238090	
32,637000	0,66	-0,235000	
32,648000	0,66	-0,232340	
32,659000	0,66	-0,245690	
32,670000	0,66	-0,254610	
32,681000	0,66	-0,248390	
32,692000	0,66	-0,257640	
32,703000	0,66	-0,270820	
32,714000	0,66	-0,282100	
32,725000	0,66	-0,269900	
32,736000	0,66	-0,268870	
32,747000	0,66	-0,253340	
32,758000	0,66	-0,253140	
32,769000	0,66	-0,243910	
32,780000	0,66	-0,241390	
32,791000	0,66	-0,257260	
32,802000	0,66	-0,256130	
32,813000	0,66	-0,251910	
32,824000	0,66	-0,252110	
32,835000	0,66	-0,246740	
32,846000	0,66	-0,254960	
32,857000	0,66	-0,279060	
32,868000	0,66	-0,280670	
32,879000	0,66	-0,283490	
32,890000	0,66	-0,263820	
32,901000	0,66	-0,263280	
32,912000	0,66	-0,259230	
32,923000	0,66	-0,259270	
32,934000	0,66	-0,269080	
32,945000	0,66	-0,261330	
32,956000	0,66	-0,260010	
32,967000	0,66	-0,267210	
32,978000	0,66	-0,268220	
32,989000	0,66	-0,264000	
33,000000	0,66	-0,266350	
33,011000	0,66	-0,260750	
33,022000	0,66	-0,264740	
33,033000	0,66	-0,264910	
33,044000	0,66	-0,268010	
33,055000	0,66	-0,276430	
33,066000	0,66	-0,277680	
33,077000	0,66	-0,276740	
33,088000	0,66	-0,281480	
33,099000	0,66	-0,266720	
33,110000	0,66	-0,253850	
33,121000	0,66	-0,272030	
33,132000	0,66	-0,280600	
33,143000	0,66	-0,279210	
33,154000	0,66	-0,269960	
33,165000	0,66	-0,262660	
33,176000	0,66	-0,267950	
33,187000	0,66	-0,261960	
33,198000	0,66	-0,270500	
33,209000	0,66	-0,281440	
33,220000	0,66	-0,280490	
33,231000	0,66	-0,275070	
33,242000	0,66	-0,275160	
33,253000	0,66	-0,260800	
33,264000	0,66	-0,266080	
33,275000	0,66	-0,269610	
33,286000	0,66	-0,255850	
33,297000	0,66	-0,256190	
33,308000	0,66	-0,259860	
33,319000	0,66	-0,269700	
33,330000	0,66	-0,276250	
33,341000	0,66	-0,282550	
33,352000	0,66	-0,270030	
33,363000	0,66	-0,265080	
33,374000	0,66	-0,279630	
33,385000	0,66	-0,285610	
33,396000	0,66	-0,288910	
33,407000	0,66	-0,284460	
33,418000	0,66	-0,280480	
33,429000	0,66	-0,273500	
33,440000	0,66	-0,270560	
33,451000	0,66	-0,269020	
33,462000	0,66	-0,267600	
33,473000	0,66	-0,274540	
33,484000	0,66	-0,269950	
33,495000	0,66	-0,277090	
33,506000	0,66	-0,278750	
33,517000	0,66	-0,267510	
33,528000	0,66	-0,259000	
33,539000	0,66	-0,256010	
33,550000	0,66	-0,254580	
33,561000	0,66	-0,263480	
33,572000	0,66	-0,262950	
33,583000	0,66	-0,280660	
33,594000	0,66	-0,286880	
33,605000	0,66	-0,278670	
33,616000	0,66	-0,279630	
33,627000	0,66	-0,280250	
33,638000	0,66	-0,268940	
33,649000	0,66	-0,258240	
33,660000	0,66	-0,261550	
33,671000	0,66	-0,259120	
33,682000	0,66	-0,253920	
33,693000	0,66	-0,248110	
33,704000	0,66	-0,243660	
33,715000	0,66	-0,256380	
33,726000	0,66	-0,251030	
33,737000	0,66	-0,245680	
33,748000	0,66	-0,250090	
33,759000	0,66	-0,244930	
33,770000	0,66	-0,252080	
33,781000	0,66	-0,261860	
33,792000	0,66	-0,256340	
33,803000	0,66	-0,241750	
33,814000	0,66	-0,232920	
33,825000	0,66	-0,236310	
33,836000	0,66	-0,243850	
33,847000	0,66	-0,253150	
33,858000	0,66	-0,273490	
33,869000	0,66	-0,283990	
33,880000	0,66	-0,266820	
33,891000	0,66	-0,260700	
33,902000	0,66	-0,263910	
33,913000	0,66	-0,251960	
33,924000	0,66	-0,243300	
33,935000	0,66	-0,241220	
33,946000	0,66	-0,240270	
33,957000	0,66	-0,253440	
33,968000	0,66	-0,256790	
33,979000	0,66	-0,245500	
33,990000	0,66	-0,240940	
34,001000	0,66	-0,241900	
34,012000	0,66	-0,256910	
34,023000	0,66	-0,259820	
34,034000	0,66	-0,260140	
34,045000	0,66	-0,268070	
34,056000	0,66	-0,281730	
34,067000	0,66	-0,286510	
34,078000	0,66	-0,281080	
34,089000	0,66	-0,286800	
34,100000	0,66	-0,285740	
34,111000	0,66	-0,273530	
34,122000	0,66	-0,267850	
34,133000	0,66	-0,279040	
34,144000	0,66	-0,259190	
34,155000	0,66	-0,254420	
34,166000	0,66	-0,259940	
34,177000	0,66	-0,271520	
34,188000	0,66	-0,279670	
34,199000	0,66	-0,275870	
34,210000	0,66	-0,273910	
34,221000	0,66	-0,269870	
34,232000	0,66	-0,266800	
34,243000	0,66	-0,262050	
34,254000	0,66	-0,263450	
34,265000	0,66	-0,281340	
34,276000	0,66	-0,287300	
34,287000	0,66	-0,286490	
34,298000	0,66	-0,280300	
34,309000	0,66	-0,264180	
34,320000	0,66	-0,255910	
34,331000	0,66	-0,260230	
34,342000	0,66	-0,264540	
34,353000	0,66	-0,269540	
34,364000	0,66	-0,290090	
34,375000	0,66	-0,305520	
34,386000	0,66	-0,294680	
34,397000	0,66	-0,278400	
34,408000	0,66	-0,270450	
34,419000	0,66	-0,285340	
34,430000	0,66	-0,282940	
34,441000	0,66	-0,274140	
34,452000	0,66	-0,277480	
34,463000	0,66	-0,272390	
34,474000	0,66	-0,262140	
34,485000	0,66	-0,271710	
34,496000	0,66	-0,278930	
34,507000	0,66	-0,273380	
34,518000	0,66	-0,268510	
34,529000	0,66	-0,265870	
34,540000	0,66	-0,268220	
34,551000	0,66	-0,278460	
34,562000	0,66	-0,279400	
34,573000	0,66	-0,274430	
34,584000	0,66	-0,276800	
34,595000	0,66	-0,270690	
34,606000	0,66	-0,260320	
34,617000	0,66	-0,248290	
34,628000	0,66	-0,235490	
34,639000	0,66	-0,226870	
34,650000	0,66	-0,240400	
34,661000	0,66	-0,250670	
34,672000	0,66	-0,258280	
34,683000	0,66	-0,264950	
34,694000	0,66	-0,272730	
34,705000	0,66	-0,266500	
34,716000	0,66	-0,264560	
34,727000	0,66	-0,253980	
34,738000	0,66	-0,249500	
34,749000	0,66	-0,259820	
34,760000	0,66	-0,261300	
34,771000	0,66	-0,271760	
34,782000	0,66	-0,281630	
34,793000	0,66	-0,269400	
34,804000	0,66	-0,255030	
34,815000	0,66	-0,259350	
34,826000	0,66	-0,266140	
34,837000	0,66	-0,273690	
34,848000	0,66	-0,277130	
34,859000	0,66	-0,280330	
34,870000	0,66	-0,292130	
34,881000	0,66	-0,291950	
34,892000	0,66	-0,275570	
34,903000	0,66	-0,260770	
34,914000	0,66	-0,254670	
34,925000	0,66	-0,254100	
34,936000	0,66	-0,258190	
34,947000	0,66	-0,253690	
34,958000	0,66	-0,246360	
34,969000	0,66	-0,252720	
34,980000	0,66	-0,256240	
34,991000	0,66	-0,250310	
35,002000	0,66	-0,245730	
35,013000	0,66	-0,255670	
35,024000	0,66	-0,258610	
35,035000	0,66	-0,250670	
35,046000	0,66	-0,253310	
35,057000	0,66	-0,268290	
35,068000	0,66	-0,271600	
35,079000	0,66	-0,274440	
35,090000	0,66	-0,262990	
35,101000	0,66	-0,252610	
35,112000	0,66	-0,244180	
35,123000	0,66	-0,242300	
35,134000	0,66	-0,247160	
35,145000	0,66	-0,258610	
35,156000	0,66	-0,259660	
35,167000	0,66	-0,253610	
35,178000	0,66	-0,258540	
35,189000	0,66	-0,270750	
35,200000	0,66	-0,269410	
35,211000	0,66	-0,264520	
35,222000	0,66	-0,267510	
35,233000	0,66	-0,264970	
35,244000	0,66	-0,251220	
35,255000	0,66	-0,243710	
35,266000	0,66	-0,252440	
35,277000	0,66	-0,257110	
35,288000	0,66	-0,260800	
35,299000	0,66	-0,264230	
35,310000	0,66	-0,265980	
35,321000	0,66	-0,279240	
35,332000	0,66	-0,284100	
35,343000	0,66	-0,275610	
35,354000	0,66	-0,254360	
35,365000	0,66	-0,248870	
35,376000	0,66	-0,253860	
35,387000	0,66	-0,261560	
35,398000	0,66	-0,259700	
35,409000	0,66	-0,267360	
35,420000	0,66	-0,277420	
35,431000	0,66	-0,272370	
35,442000	0,66	-0,267270	
35,453000	0,66	-0,260770	
35,464000	0,66	-0,257750	
35,475000	0,66	-0,251870	
35,486000	0,66	-0,245980	
35,497000	0,66	-0,262270	
35,508000	0,66	-0,263900	
35,519000	0,66	-0,266140	
35,530000	0,66	-0,267820	
35,541000	0,66	-0,268060	
35,552000	0,66	-0,275000	
35,563000	0,66	-0,270730	
35,574000	0,66	-0,277060	
35,585000	0,66	-0,267640	
35,596000	0,66	-0,279460	
35,607000	0,66	-0,280580	
35,618000	0,66	-0,274990	
35,629000	0,66	-0,273010	
35,640000	0,66	-0,281970	
35,651000	0,66	-0,267650	
35,662000	0,66	-0,262130	
35,673000	0,66	-0,264150	
35,684000	0,66	-0,253040	
35,695000	0,66	-0,241310	
35,706000	0,66	-0,249800	
35,717000	0,66	-0,251020	
35,728000	0,66	-0,247410	
35,739000	0,66	-0,254000	
35,750000	0,66	-0,266050	
35,761000	0,66	-0,273900	
35,772000	0,66	-0,271280	
35,783000	0,66	-0,262800	
35,794000	0,66	-0,258180	
35,805000	0,66	-0,257750	
35,816000	0,66	-0,257490	
35,827000	0,66	-0,254580	
35,838000	0,66	-0,253830	
35,849000	0,66	-0,245630	
35,860000	0,66	-0,252260	
35,871000	0,66	-0,254480	
35,882000	0,66	-0,252750	
35,893000	0,66	-0,254560	
35,904000	0,66	-0,259460	
35,915000	0,66	-0,259120	
35,926000	0,66	-0,260070	
35,937000	0,66	-0,261840	
35,948000	0,66	-0,254280	
35,959000	0,66	-0,259360	
35,970000	0,66	-0,272950	
35,981000	0,66	-0,276510	
35,992000	0,66	-0,270060	
36,003000	0,66	-0,264970	
36,014000	0,66	-0,263110	
36,025000	0,66	-0,264540	
36,036000	0,66	-0,268890	
36,047000	0,66	-0,262830	
36,058000	0,66	-0,272380	
36,069000	0,66	-0,272640	
36,080000	0,66	-0,270360	
36,091000	0,66	-0,260740	
36,102000	0,66	-0,269590	
36,113000	0,66	-0,289410	
36,124000	0,66	-0,302960	
36,135000	0,66	-0,293700	
36,146000	0,66	-0,277160	
36,157000	0,66	-0,269830	
36,168000	0,66	-0,272430	
36,179000	0,66	-0,268020	
36,190000	0,66	-0,261140	
36,201000	0,66	-0,272110	
36,212000	0,66	-0,265870	
36,223000	0,66	-0,269140	
36,234000	0,66	-0,264560	
36,245000	0,66	-0,270340	
36,256000	0,66	-0,266560	
36,267000	0,66	-0,255560	
36,278000	0,66	-0,242740	
36,289000	0,66	-0,254330	
36,300000	0,66	-0,259820	
36,311000	0,66	-0,256840	
36,322000	0,66	-0,257850	
36,333000	0,66	-0,273790	
36,344000	0,66	-0,282020	
36,355000	0,66	-0,288550	
36,366000	0,66	-0,288190	
36,377000	0,66	-0,275660	
36,388000	0,66	-0,256770	
36,399000	0,66	-0,265990	
36,410000	0,66	-0,269680	
36,421000	0,66	-0,266860	
36,432000	0,66	-0,272000	
36,443000	0,66	-0,276110	
36,454000	0,66	-0,280850	
36,465000	0,66	-0,280030	
36,476000	0,66	-0,282590	
36,487000	0,66	-0,258460	
36,498000	0,66	-0,249750	
36,509000	0,66	-0,249850	
36,520000	0,66	-0,248020	
36,531000	0,66	-0,249590	
36,542000	0,66	-0,250820	
36,553000	0,66	-0,254630	
36,564000	0,66	-0,261350	
36,575000	0,66	-0,266730	
36,586000	0,66	-0,284210	
36,597000	0,66	-0,296170	
36,608000	0,66	-0,296950	
36,619000	0,66	-0,296250	
36,630000	0,66	-0,282340	
36,641000	0,66	-0,278230	
36,652000	0,66	-0,285650	
36,663000	0,66	-0,280630	
36,674000	0,66	-0,278910	
36,685000	0,66	-0,276960	
36,696000	0,66	-0,262470	
36,707000	0,66	-0,253240	
36,718000	0,66	-0,260900	
36,729000	0,66	-0,267920	
36,740000	0,66	-0,272350	
36,751000	0,66	-0,282420	
36,762000	0,66	-0,293780	
36,773000	0,66	-0,312320	
36,784000	0,66	-0,337200	
36,795000	0,66	-0,324440	
36,806000	0,66	-0,304000	
36,817000	0,66	-0,301810	
36,828000	0,66	-0,299700	
36,839000	0,66	-0,303480	
36,850000	0,66	-0,298610	
36,861000	0,66	-0,304410	
36,872000	0,66	-0,313660	
36,883000	0,66	-0,321200	
36,894000	0,66	-0,314570	
36,905000	0,66	-0,302330	
36,916000	0,66	-0,287230	
36,927000	0,66	-0,283770	
36,938000	0,66	-0,313140	
36,949000	0,66	-0,334820	
36,960000	0,66	-0,321680	
36,971000	0,66	-0,316470	
36,982000	0,66	-0,318250	
36,993000	0,66	-0,314560	
37,004000	0,66	-0,327780	
37,015000	0,66	-0,320720	
37,026000	0,66	-0,310660	
37,037000	0,66	-0,303060	
37,048000	0,66	-0,303870	
37,059000	0,66	-0,304650	
37,070000	0,66	-0,291700	
37,081000	0,66	-0,290140	
37,092000	0,66	-0,282330	
37,103000	0,66	-0,278990	
37,114000	0,66	-0,282440	
37,125000	0,66	-0,296520	
37,136000	0,66	-0,320350	
37,147000	0,66	-0,314970	
37,158000	0,66	-0,311060	
37,169000	0,66	-0,316210	
37,180000	0,66	-0,322280	
37,191000	0,66	-0,334120	
37,202000	0,66	-0,343240	
37,213000	0,66	-0,338360	
37,224000	0,66	-0,330760	
37,235000	0,66	-0,316150	
37,246000	0,66	-0,305230	
37,257000	0,66	-0,305400	
37,268000	0,66	-0,313060	
37,279000	0,66	-0,319770	
37,290000	0,66	-0,321540	
37,301000	0,66	-0,316870	
37,312000	0,66	-0,312310	
37,323000	0,66	-0,308990	
37,334000	0,66	-0,316150	
37,345000	0,66	-0,330170	
37,356000	0,66	-0,326030	
37,367000	0,66	-0,311490	
37,378000	0,66	-0,303730	
37,389000	0,66	-0,311840	
37,400000	0,66	-0,322440	
37,411000	0,66	-0,308990	
37,422000	0,66	-0,292590	
37,433000	0,66	-0,297370	
37,444000	0,66	-0,295290	
37,455000	0,66	-0,294460	
37,466000	0,66	-0,295420	
37,477000	0,66	-0,305020	
37,488000	0,66	-0,336560	
37,499000	0,66	-0,348030	
37,510000	0,66	-0,340680	
37,521000	0,66	-0,334670	
37,532000	0,66	-0,327930	
37,543000	0,66	-0,323870	
37,554000	0,66	-0,311960	
37,565000	0,66	-0,321390	
37,576000	0,66	-0,332510	
37,587000	0,66	-0,331480	
37,598000	0,66	-0,333980	
37,609000	0,66	-0,327740	
37,620000	0,66	-0,330400	
37,631000	0,66	-0,313540	
37,642000	0,66	-0,304500	
37,653000	0,66	-0,286070	
37,664000	0,66	-0,295270	
37,675000	0,66	-0,311990	
37,686000	0,66	-0,324170	
37,697000	0,66	-0,315730	
37,708000	0,66	-0,311600	
37,719000	0,66	-0,312030	
37,730000	0,66	-0,322290	
37,741000	0,66	-0,321700	
37,752000	0,66	-0,316610	
37,763000	0,66	-0,327610	
37,774000	0,66	-0,331780	
37,785000	0,66	-0,326420	
37,796000	0,66	-0,331180	
37,807000	0,66	-0,329860	
37,818000	0,66	-0,338910	
37,829000	0,66	-0,335750	
37,840000	0,66	-0,331160	
37,851000	0,66	-0,321790	
37,862000	0,66	-0,320890	
37,873000	0,66	-0,327620	
37,884000	0,66	-0,327040	
37,895000	0,66	-0,326920	
37,906000	0,66	-0,313940	
37,917000	0,66	-0,301890	
37,928000	0,66	-0,315120	
37,939000	0,66	-0,330720	
37,950000	0,66	-0,339390	
37,961000	0,66	-0,347540	
37,972000	0,66	-0,335670	
37,983000	0,66	-0,313380	
37,994000	0,66	-0,302790	
38,005000	0,66	-0,298970	
38,016000	0,66	-0,293720	
38,027000	0,66	-0,297110	
38,038000	0,66	-0,308350	
38,049000	0,66	-0,313820	
38,060000	0,66	-0,324180	
38,071000	0,66	-0,334530	
38,082000	0,66	-0,331650	
38,093000	0,66	-0,317570	
38,104000	0,66	-0,299590	
38,115000	0,66	-0,305450	
38,126000	0,66	-0,313450	
38,137000	0,66	-0,314450	
38,148000	0,66	-0,316410	
38,159000	0,66	-0,308990	
38,170000	0,66	-0,317780	
38,181000	0,66	-0,330930	
38,192000	0,66	-0,346190	
38,203000	0,66	-0,337920	
38,214000	0,66	-0,330390	
38,225000	0,66	-0,337720	
38,236000	0,66	-0,325420	
38,247000	0,66	-0,307150	
38,258000	0,66	-0,318780	
38,269000	0,66	-0,322720	
38,280000	0,66	-0,331200	
38,291000	0,66	-0,335490	
38,302000	0,66	-0,334370	
38,313000	0,66	-0,322030	
38,324000	0,66	-0,308050	
38,335000	0,66	-0,311210	
38,346000	0,66	-0,306650	
38,357000	0,66	-0,328590	
38,368000	0,66	-0,335170	
38,379000	0,66	-0,325790	
38,390000	0,66	-0,317230	
38,401000	0,66	-0,314220	
38,412000	0,66	-0,321630	
38,423000	0,66	-0,315180	
38,434000	0,66	-0,287880	
38,445000	0,66	-0,286840	
38,456000	0,66	-0,278950	
38,467000	0,66	-0,279750	
38,478000	0,66	-0,284390	
38,489000	0,66	-0,278860	
38,500000	0,66	-0,270800	
38,511000	0,66	-0,260800	
38,522000	0,66	-0,266340	
38,533000	0,66	-0,279950	
38,544000	0,66	-0,285320	
38,555000	0,66	-0,278030	
38,566000	0,66	-0,280090	
38,577000	0,66	-0,284420	
38,588000	0,66	-0,290560	
38,599000	0,66	-0,290560	
38,610000	0,66	-0,301980	
38,621000	0,66	-0,316270	
38,632000	0,66	-0,322560	
38,643000	0,66	-0,320490	
38,654000	0,66	-0,302730	
38,665000	0,66	-0,292620	
38,676000	0,66	-0,291050	
38,687000	0,66	-0,290970	
38,698000	0,66	-0,282660	
38,709000	0,66	-0,279060	
38,720000	0,66	-0,295400	
38,731000	0,66	-0,298910	
38,742000	0,66	-0,293920	
38,753000	0,66	-0,288860	
38,764000	0,66	-0,281490	
38,775000	0,66	-0,285590	
38,786000	0,66	-0,285740	
38,797000	0,66	-0,292250	
38,808000	0,66	-0,294870	
38,819000	0,66	-0,277930	
38,830000	0,66	-0,264970	
38,841000	0,66	-0,274900	
38,852000	0,66	-0,272200	
38,863000	0,66	-0,269900	
38,874000	0,66	-0,263060	
38,885000	0,66	-0,262660	
38,896000	0,66	-0,266370	
38,907000	0,66	-0,256500	
38,918000	0,66	-0,255970	
38,929000	0,66	-0,261380	
38,940000	0,66	-0,267110	
38,951000	0,66	-0,257750	
38,962000	0,66	-0,263730	
38,973000	0,66	-0,266140	
38,984000	0,66	-0,250070	
38,995000	0,66	-0,254090	
39,006000	0,66	-0,258710	
39,017000	0,66	-0,272620	
39,028000	0,66	-0,267830	
39,039000	0,66	-0,245500	
39,050000	0,66	-0,246030	
39,061000	0,66	-0,254670	
39,072000	0,66	-0,273210	
39,083000	0,66	-0,266220	
39,094000	0,66	-0,252260	
39,105000	0,66	-0,258180	
39,116000	0,66	-0,271590	
39,127000	0,66	-0,254910	
39,138000	0,66	-0,240900	
39,149000	0,66	-0,242620	
39,160000	0,66	-0,249120	
39,171000	0,66	-0,256760	
39,182000	0,66	-0,270080	
39,193000	0,66	-0,273440	
39,204000	0,66	-0,274550	
39,215000	0,66	-0,272930	
39,226000	0,66	-0,271590	
39,237000	0,66	-0,258060	
39,248000	0,66	-0,248290	
39,259000	0,66	-0,251710	
39,270000	0,66	-0,252590	
39,281000	0,66	-0,250020	
39,292000	0,66	-0,231200	
39,303000	0,66	-0,232170	
39,314000	0,66	-0,244590	
39,325000	0,66	-0,246490	
39,336000	0,66	-0,256690	
39,347000	0,66	-0,256940	
39,358000	0,66	-0,254850	
39,369000	0,66	-0,254920	
39,380000	0,66	-0,245200	
39,391000	0,66	-0,233590	
39,402000	0,66	-0,231590	
39,413000	0,66	-0,228670	
39,424000	0,66	-0,224300	
39,435000	0,66	-0,233710	
39,446000	0,66	-0,244050	
39,457000	0,66	-0,249400	
39,468000	0,66	-0,259160	
39,479000	0,66	-0,265460	
39,490000	0,66	-0,265680	
39,501000	0,66	-0,261340	
39,512000	0,66	-0,246860	
39,523000	0,66	-0,234660	
39,534000	0,66	-0,222320	
39,545000	0,66	-0,201230	
39,556000	0,66	-0,188390	
39,567000	0,66	-0,186870	
39,578000	0,66	-0,202260	
39,589000	0,66	-0,197870	
39,600000	0,66	-0,202380	
39,611000	0,66	-0,225730	
39,622000	0,66	-0,241670	
39,633000	0,66	-0,235710	
39,644000	0,66	-0,215260	
39,655000	0,66	-0,205290	
39,666000	0,66	-0,209290	
39,677000	0,66	-0,219970	
39,688000	0,66	-0,219400	
39,699000	0,66	-0,223410	
39,710000	0,66	-0,242690	
39,721000	0,66	-0,236820	
39,732000	0,66	-0,228210	
39,743000	0,66	-0,222270	
39,754000	0,66	-0,217640	
39,765000	0,66	-0,205790	
39,776000	0,66	-0,209620	
39,787000	0,66	-0,216540	
39,798000	0,66	-0,216550	
39,809000	0,66	-0,198770	
39,820000	0,66	-0,197460	
39,831000	0,66	-0,198190	
39,842000	0,66	-0,212230	
39,853000	0,66	-0,198120	
39,864000	0,66	-0,220290	
39,875000	0,66	-0,235710	
39,886000	0,66	-0,219520	
39,897000	0,66	-0,205890	
39,908000	0,66	-0,201360	
39,919000	0,66	-0,195050	
39,930000	0,66	-0,198480	
39,941000	0,66	-0,199610	
39,952000	0,66	-0,206910	
39,963000	0,66	-0,208060	
39,974000	0,66	-0,194290	
39,985000	0,66	-0,191680	
39,996000	0,66	-0,193890	
40,007000	0,66	-0,193940	
