Filepath	C:\Chromel\data\Analytik\Walther group\Guido\mechanosense\GCR260.SEQ\UV_VIS_3.CHL\30161.acd
Channel	UV_VIS_3

Sample Information:
Datasource	PC-8NN4M2J_local
Sequence	Analytik\Walther group\Guido\mechanosense\GCR260.SEQ
Sample	200717-11
Sample Number	314
Sample Position	RC1
Sample ID	30161
Comment	260-P5-2
QNT method	default
PGM file	single-component-3 40min 60C 0,4mLmin
Type	unknown
Status	finished
Date	17.07.2020
Time	17:48:49
Injection Volume (µl)	100,00
Dilution Factor	1,000000
Amount	1,000000
Weight	1,000000

Raw Data Header Information:
Time Min. (min)	0,000
Time Max. (min)	40,007
Raw-Time Min. (min)	0,000
Raw-Time Max. (min)	40,007
Data Points	3638
Detector	VWD3000.dll
Preferred Read Mode	Unknown
Write Mode	Unknown
Data System	Chromeleon
Version High	06
Version Low	80
Build No.	3160
File Format Version	11
Generation Type	8
File ID	239054205
File Status	16
GUID	b144bda8-c844-11ea-b409-00184d71f7da
Signal Factor	0,000010
Signal Dimension	mAU
Signal Unit	Absorbance
Signal Min.	-1,48961
Signal Max.	24,128230
Channel Name	UV_VIS_3
Driver Name	VWD-3x00 Detector
Min. Step	66
Max. Step	66
Average Step	66

Signal Parameter Information:
Signal Info	WVL:610 nm
Wavelength	610 nm
	 




















Raw Data:
Time(min)	Step(sec)	Value(mAU)
0,000000	0,00	0,073510	
0,011000	0,66	0,075900	
0,022000	0,66	0,102300	
0,033000	0,66	0,128100	
0,044000	0,66	0,150100	
0,055000	0,66	0,154220	
0,066000	0,66	0,165210	
0,077000	0,66	0,177660	
0,088000	0,66	0,177490	
0,099000	0,66	0,176070	
0,110000	0,66	0,162310	
0,121000	0,66	0,145780	
0,132000	0,66	0,151230	
0,143000	0,66	0,156510	
0,154000	0,66	0,156030	
0,165000	0,66	0,147570	
0,176000	0,66	0,139420	
0,187000	0,66	0,132620	
0,198000	0,66	0,134170	
0,209000	0,66	0,146770	
0,220000	0,66	0,142120	
0,231000	0,66	0,140700	
0,242000	0,66	0,146560	
0,253000	0,66	0,151620	
0,264000	0,66	0,155210	
0,275000	0,66	0,156010	
0,286000	0,66	0,164950	
0,297000	0,66	0,173080	
0,308000	0,66	0,168140	
0,319000	0,66	0,166090	
0,330000	0,66	0,164390	
0,341000	0,66	0,164180	
0,352000	0,66	0,164150	
0,363000	0,66	0,166020	
0,374000	0,66	0,172520	
0,385000	0,66	0,161360	
0,396000	0,66	0,148710	
0,407000	0,66	0,154690	
0,418000	0,66	0,158460	
0,429000	0,66	0,156340	
0,440000	0,66	0,147960	
0,451000	0,66	0,135430	
0,462000	0,66	0,129470	
0,473000	0,66	0,128520	
0,484000	0,66	0,130030	
0,495000	0,66	0,133270	
0,506000	0,66	0,138100	
0,517000	0,66	0,133910	
0,528000	0,66	0,130390	
0,539000	0,66	0,135790	
0,550000	0,66	0,152190	
0,561000	0,66	0,147080	
0,572000	0,66	0,144190	
0,583000	0,66	0,141990	
0,594000	0,66	0,145300	
0,605000	0,66	0,146910	
0,616000	0,66	0,147730	
0,627000	0,66	0,142150	
0,638000	0,66	0,145060	
0,649000	0,66	0,142380	
0,660000	0,66	0,141990	
0,671000	0,66	0,134730	
0,682000	0,66	0,128530	
0,693000	0,66	0,119720	
0,704000	0,66	0,114010	
0,715000	0,66	0,118680	
0,726000	0,66	0,124100	
0,737000	0,66	0,112650	
0,748000	0,66	0,110500	
0,759000	0,66	0,124250	
0,770000	0,66	0,117560	
0,781000	0,66	0,114250	
0,792000	0,66	0,121740	
0,803000	0,66	0,123620	
0,814000	0,66	0,124880	
0,825000	0,66	0,131250	
0,836000	0,66	0,141060	
0,847000	0,66	0,137220	
0,858000	0,66	0,131970	
0,869000	0,66	0,131500	
0,880000	0,66	0,136170	
0,891000	0,66	0,133280	
0,902000	0,66	0,135270	
0,913000	0,66	0,129270	
0,924000	0,66	0,111820	
0,935000	0,66	0,108640	
0,946000	0,66	0,112240	
0,957000	0,66	0,122140	
0,968000	0,66	0,121700	
0,979000	0,66	0,119410	
0,990000	0,66	0,126300	
1,001000	0,66	0,128680	
1,012000	0,66	0,131700	
1,023000	0,66	0,142230	
1,034000	0,66	0,144840	
1,045000	0,66	0,141140	
1,056000	0,66	0,144400	
1,067000	0,66	0,148790	
1,078000	0,66	0,139760	
1,089000	0,66	0,131660	
1,100000	0,66	0,135870	
1,111000	0,66	0,134800	
1,122000	0,66	0,135040	
1,133000	0,66	0,135470	
1,144000	0,66	0,129400	
1,155000	0,66	0,127720	
1,166000	0,66	0,119850	
1,177000	0,66	0,118480	
1,188000	0,66	0,115670	
1,199000	0,66	0,106370	
1,210000	0,66	0,114460	
1,221000	0,66	0,123820	
1,232000	0,66	0,129170	
1,243000	0,66	0,141900	
1,254000	0,66	0,141220	
1,265000	0,66	0,139710	
1,276000	0,66	0,130280	
1,287000	0,66	0,124730	
1,298000	0,66	0,085540	
1,309000	0,66	-0,051430	
1,320000	0,66	-0,267980	
1,331000	0,66	-0,548380	
1,342000	0,66	-0,758470	
1,353000	0,66	-0,844080	
1,364000	0,66	-0,786110	
1,375000	0,66	-0,643610	
1,386000	0,66	-0,455130	
1,397000	0,66	-0,258350	
1,408000	0,66	-0,101360	
1,419000	0,66	0,022300	
1,430000	0,66	0,131640	
1,441000	0,66	0,212660	
1,452000	0,66	0,280370	
1,463000	0,66	0,336090	
1,474000	0,66	0,401300	
1,485000	0,66	0,472800	
1,496000	0,66	0,537160	
1,507000	0,66	0,593390	
1,518000	0,66	0,659890	
1,529000	0,66	0,730450	
1,540000	0,66	0,803200	
1,551000	0,66	0,876070	
1,562000	0,66	0,929740	
1,573000	0,66	0,966390	
1,584000	0,66	0,985170	
1,595000	0,66	0,985920	
1,606000	0,66	0,960060	
1,617000	0,66	0,912450	
1,628000	0,66	0,825540	
1,639000	0,66	0,715550	
1,650000	0,66	0,581320	
1,661000	0,66	0,444610	
1,672000	0,66	0,316060	
1,683000	0,66	0,197640	
1,694000	0,66	0,108540	
1,705000	0,66	0,050200	
1,716000	0,66	0,014270	
1,727000	0,66	0,002000	
1,738000	0,66	0,004440	
1,749000	0,66	0,016650	
1,760000	0,66	0,036690	
1,771000	0,66	0,071390	
1,782000	0,66	0,114820	
1,793000	0,66	0,154530	
1,804000	0,66	0,195700	
1,815000	0,66	0,224050	
1,826000	0,66	0,250170	
1,837000	0,66	0,276510	
1,848000	0,66	0,301090	
1,859000	0,66	0,327050	
1,870000	0,66	0,351780	
1,881000	0,66	0,361820	
1,892000	0,66	0,377770	
1,903000	0,66	0,396850	
1,914000	0,66	0,403980	
1,925000	0,66	0,405820	
1,936000	0,66	0,411270	
1,947000	0,66	0,425500	
1,958000	0,66	0,425490	
1,969000	0,66	0,426130	
1,980000	0,66	0,434390	
1,991000	0,66	0,421190	
2,002000	0,66	0,415010	
2,013000	0,66	0,414690	
2,024000	0,66	0,445130	
2,035000	0,66	0,454910	
2,046000	0,66	0,460990	
2,057000	0,66	0,458180	
2,068000	0,66	0,463580	
2,079000	0,66	0,467330	
2,090000	0,66	0,470190	
2,101000	0,66	0,471190	
2,112000	0,66	0,459990	
2,123000	0,66	0,476750	
2,134000	0,66	0,474280	
2,145000	0,66	0,459790	
2,156000	0,66	0,453870	
2,167000	0,66	0,415500	
2,178000	0,66	0,224970	
2,189000	0,66	-0,218520	
2,200000	0,66	-0,770610	
2,211000	0,66	-1,226280	
2,222000	0,66	-1,455300	
2,233000	0,66	-1,489610	
2,244000	0,66	-1,388370	
2,255000	0,66	-1,220080	
2,266000	0,66	-1,009970	
2,277000	0,66	-0,805130	
2,288000	0,66	-0,628750	
2,299000	0,66	-0,465200	
2,310000	0,66	-0,325030	
2,321000	0,66	-0,205150	
2,332000	0,66	-0,118810	
2,343000	0,66	-0,054900	
2,354000	0,66	-0,003790	
2,365000	0,66	0,020260	
2,376000	0,66	0,039900	
2,387000	0,66	0,066030	
2,398000	0,66	0,080410	
2,409000	0,66	0,075920	
2,420000	0,66	0,078880	
2,431000	0,66	0,094170	
2,442000	0,66	0,114220	
2,453000	0,66	0,123390	
2,464000	0,66	0,117910	
2,475000	0,66	0,112930	
2,486000	0,66	0,110840	
2,497000	0,66	0,109960	
2,508000	0,66	0,110840	
2,519000	0,66	0,113620	
2,530000	0,66	0,112700	
2,541000	0,66	0,118050	
2,552000	0,66	0,124760	
2,563000	0,66	0,131580	
2,574000	0,66	0,123820	
2,585000	0,66	0,114870	
2,596000	0,66	0,115960	
2,607000	0,66	0,112780	
2,618000	0,66	0,124350	
2,629000	0,66	0,126990	
2,640000	0,66	0,134560	
2,651000	0,66	0,135010	
2,662000	0,66	0,131290	
2,673000	0,66	0,118640	
2,684000	0,66	0,112850	
2,695000	0,66	0,105270	
2,706000	0,66	0,101470	
2,717000	0,66	0,100860	
2,728000	0,66	0,100010	
2,739000	0,66	0,110680	
2,750000	0,66	0,116490	
2,761000	0,66	0,113280	
2,772000	0,66	0,118040	
2,783000	0,66	0,118440	
2,794000	0,66	0,137350	
2,805000	0,66	0,143070	
2,816000	0,66	0,128050	
2,827000	0,66	0,127990	
2,838000	0,66	0,132650	
2,849000	0,66	0,121140	
2,860000	0,66	0,124550	
2,871000	0,66	0,122450	
2,882000	0,66	0,124800	
2,893000	0,66	0,128610	
2,904000	0,66	0,131310	
2,915000	0,66	0,137030	
2,926000	0,66	0,137870	
2,937000	0,66	0,139680	
2,948000	0,66	0,139070	
2,959000	0,66	0,134290	
2,970000	0,66	0,127030	
2,981000	0,66	0,117520	
2,992000	0,66	0,119820	
3,003000	0,66	0,113460	
3,014000	0,66	0,105870	
3,025000	0,66	0,102790	
3,036000	0,66	0,106640	
3,047000	0,66	0,123450	
3,058000	0,66	0,137980	
3,069000	0,66	0,141690	
3,080000	0,66	0,139280	
3,091000	0,66	0,138050	
3,102000	0,66	0,129280	
3,113000	0,66	0,123140	
3,124000	0,66	0,122560	
3,135000	0,66	0,122050	
3,146000	0,66	0,129060	
3,157000	0,66	0,132210	
3,168000	0,66	0,129560	
3,179000	0,66	0,126000	
3,190000	0,66	0,125150	
3,201000	0,66	0,128130	
3,212000	0,66	0,124800	
3,223000	0,66	0,130860	
3,234000	0,66	0,130950	
3,245000	0,66	0,118510	
3,256000	0,66	0,113510	
3,267000	0,66	0,103470	
3,278000	0,66	0,111140	
3,289000	0,66	0,113820	
3,300000	0,66	0,111730	
3,311000	0,66	0,102850	
3,322000	0,66	0,098870	
3,333000	0,66	0,109400	
3,344000	0,66	0,112490	
3,355000	0,66	0,110660	
3,366000	0,66	0,112550	
3,377000	0,66	0,120940	
3,388000	0,66	0,110510	
3,399000	0,66	0,102850	
3,410000	0,66	0,110800	
3,421000	0,66	0,122000	
3,432000	0,66	0,116960	
3,443000	0,66	0,109240	
3,454000	0,66	0,111880	
3,465000	0,66	0,123480	
3,476000	0,66	0,126590	
3,487000	0,66	0,126320	
3,498000	0,66	0,114870	
3,509000	0,66	0,111920	
3,520000	0,66	0,111860	
3,531000	0,66	0,113090	
3,542000	0,66	0,118000	
3,553000	0,66	0,119930	
3,564000	0,66	0,119000	
3,575000	0,66	0,123920	
3,586000	0,66	0,126520	
3,597000	0,66	0,121680	
3,608000	0,66	0,121940	
3,619000	0,66	0,129300	
3,630000	0,66	0,127380	
3,641000	0,66	0,128090	
3,652000	0,66	0,130080	
3,663000	0,66	0,111460	
3,674000	0,66	0,106410	
3,685000	0,66	0,113740	
3,696000	0,66	0,120180	
3,707000	0,66	0,128840	
3,718000	0,66	0,133240	
3,729000	0,66	0,122670	
3,740000	0,66	0,102850	
3,751000	0,66	0,104220	
3,762000	0,66	0,110390	
3,773000	0,66	0,107550	
3,784000	0,66	0,099720	
3,795000	0,66	0,093510	
3,806000	0,66	0,099600	
3,817000	0,66	0,111420	
3,828000	0,66	0,116090	
3,839000	0,66	0,112270	
3,850000	0,66	0,098880	
3,861000	0,66	0,093180	
3,872000	0,66	0,103490	
3,883000	0,66	0,110880	
3,894000	0,66	0,111660	
3,905000	0,66	0,116460	
3,916000	0,66	0,125670	
3,927000	0,66	0,131090	
3,938000	0,66	0,134490	
3,949000	0,66	0,127180	
3,960000	0,66	0,118820	
3,971000	0,66	0,116000	
3,982000	0,66	0,110270	
3,993000	0,66	0,106480	
4,004000	0,66	0,106020	
4,015000	0,66	0,109400	
4,026000	0,66	0,121690	
4,037000	0,66	0,121240	
4,048000	0,66	0,115570	
4,059000	0,66	0,116970	
4,070000	0,66	0,121890	
4,081000	0,66	0,123240	
4,092000	0,66	0,124520	
4,103000	0,66	0,127980	
4,114000	0,66	0,120220	
4,125000	0,66	0,124100	
4,136000	0,66	0,118660	
4,147000	0,66	0,105340	
4,158000	0,66	0,107180	
4,169000	0,66	0,110840	
4,180000	0,66	0,112460	
4,191000	0,66	0,108670	
4,202000	0,66	0,117100	
4,213000	0,66	0,126280	
4,224000	0,66	0,124720	
4,235000	0,66	0,130010	
4,246000	0,66	0,128180	
4,257000	0,66	0,112590	
4,268000	0,66	0,112020	
4,279000	0,66	0,101300	
4,290000	0,66	0,106290	
4,301000	0,66	0,114710	
4,312000	0,66	0,121050	
4,323000	0,66	0,116170	
4,334000	0,66	0,107180	
4,345000	0,66	0,101320	
4,356000	0,66	0,098470	
4,367000	0,66	0,109210	
4,378000	0,66	0,118210	
4,389000	0,66	0,118090	
4,400000	0,66	0,108250	
4,411000	0,66	0,106460	
4,422000	0,66	0,109350	
4,433000	0,66	0,108150	
4,444000	0,66	0,097660	
4,455000	0,66	0,085410	
4,466000	0,66	0,097910	
4,477000	0,66	0,114330	
4,488000	0,66	0,115840	
4,499000	0,66	0,108790	
4,510000	0,66	0,104980	
4,521000	0,66	0,104190	
4,532000	0,66	0,097670	
4,543000	0,66	0,101360	
4,554000	0,66	0,107020	
4,565000	0,66	0,108890	
4,576000	0,66	0,113210	
4,587000	0,66	0,102510	
4,598000	0,66	0,101340	
4,609000	0,66	0,119910	
4,620000	0,66	0,126110	
4,631000	0,66	0,116160	
4,642000	0,66	0,108210	
4,653000	0,66	0,103890	
4,664000	0,66	0,106060	
4,675000	0,66	0,110380	
4,686000	0,66	0,111840	
4,697000	0,66	0,105730	
4,708000	0,66	0,097040	
4,719000	0,66	0,096470	
4,730000	0,66	0,095300	
4,741000	0,66	0,092880	
4,752000	0,66	0,097870	
4,763000	0,66	0,098420	
4,774000	0,66	0,093570	
4,785000	0,66	0,092210	
4,796000	0,66	0,090800	
4,807000	0,66	0,092650	
4,818000	0,66	0,102920	
4,829000	0,66	0,114270	
4,840000	0,66	0,129030	
4,851000	0,66	0,128580	
4,862000	0,66	0,130480	
4,873000	0,66	0,131880	
4,884000	0,66	0,128340	
4,895000	0,66	0,119280	
4,906000	0,66	0,115500	
4,917000	0,66	0,105900	
4,928000	0,66	0,096450	
4,939000	0,66	0,098270	
4,950000	0,66	0,105660	
4,961000	0,66	0,109990	
4,972000	0,66	0,110040	
4,983000	0,66	0,108680	
4,994000	0,66	0,105590	
5,005000	0,66	0,104010	
5,016000	0,66	0,111320	
5,027000	0,66	0,111480	
5,038000	0,66	0,114170	
5,049000	0,66	0,119900	
5,060000	0,66	0,110080	
5,071000	0,66	0,119920	
5,082000	0,66	0,124640	
5,093000	0,66	0,125820	
5,104000	0,66	0,118780	
5,115000	0,66	0,114810	
5,126000	0,66	0,111590	
5,137000	0,66	0,112050	
5,148000	0,66	0,114280	
5,159000	0,66	0,115680	
5,170000	0,66	0,118630	
5,181000	0,66	0,120880	
5,192000	0,66	0,121860	
5,203000	0,66	0,118790	
5,214000	0,66	0,114950	
5,225000	0,66	0,121610	
5,236000	0,66	0,127350	
5,247000	0,66	0,124700	
5,258000	0,66	0,117000	
5,269000	0,66	0,110860	
5,280000	0,66	0,114960	
5,291000	0,66	0,116720	
5,302000	0,66	0,114220	
5,313000	0,66	0,115100	
5,324000	0,66	0,113570	
5,335000	0,66	0,109800	
5,346000	0,66	0,111940	
5,357000	0,66	0,113340	
5,368000	0,66	0,100450	
5,379000	0,66	0,084300	
5,390000	0,66	0,077600	
5,401000	0,66	0,085670	
5,412000	0,66	0,096580	
5,423000	0,66	0,105530	
5,434000	0,66	0,112200	
5,445000	0,66	0,102620	
5,456000	0,66	0,096700	
5,467000	0,66	0,105390	
5,478000	0,66	0,107540	
5,489000	0,66	0,117940	
5,500000	0,66	0,107760	
5,511000	0,66	0,105840	
5,522000	0,66	0,102670	
5,533000	0,66	0,102470	
5,544000	0,66	0,104290	
5,555000	0,66	0,102020	
5,566000	0,66	0,111290	
5,577000	0,66	0,107090	
5,588000	0,66	0,106220	
5,599000	0,66	0,088370	
5,610000	0,66	0,083940	
5,621000	0,66	0,082980	
5,632000	0,66	0,084870	
5,643000	0,66	0,085420	
5,654000	0,66	0,082280	
5,665000	0,66	0,075870	
5,676000	0,66	0,088150	
5,687000	0,66	0,085600	
5,698000	0,66	0,092390	
5,709000	0,66	0,091870	
5,720000	0,66	0,087790	
5,731000	0,66	0,085210	
5,742000	0,66	0,093010	
5,753000	0,66	0,087880	
5,764000	0,66	0,087240	
5,775000	0,66	0,099590	
5,786000	0,66	0,107050	
5,797000	0,66	0,102460	
5,808000	0,66	0,100840	
5,819000	0,66	0,089090	
5,830000	0,66	0,082190	
5,841000	0,66	0,075170	
5,852000	0,66	0,077420	
5,863000	0,66	0,079860	
5,874000	0,66	0,077360	
5,885000	0,66	0,076160	
5,896000	0,66	0,076470	
5,907000	0,66	0,080880	
5,918000	0,66	0,097420	
5,929000	0,66	0,099670	
5,940000	0,66	0,093880	
5,951000	0,66	0,097420	
5,962000	0,66	0,086090	
5,973000	0,66	0,077540	
5,984000	0,66	0,084230	
5,995000	0,66	0,090420	
6,006000	0,66	0,095690	
6,017000	0,66	0,098880	
6,028000	0,66	0,101790	
6,039000	0,66	0,103050	
6,050000	0,66	0,107650	
6,061000	0,66	0,109330	
6,072000	0,66	0,103180	
6,083000	0,66	0,101510	
6,094000	0,66	0,096390	
6,105000	0,66	0,093600	
6,116000	0,66	0,105040	
6,127000	0,66	0,105580	
6,138000	0,66	0,099550	
6,149000	0,66	0,105510	
6,160000	0,66	0,106760	
6,171000	0,66	0,096230	
6,182000	0,66	0,079000	
6,193000	0,66	0,076930	
6,204000	0,66	0,070070	
6,215000	0,66	0,049240	
6,226000	0,66	0,031650	
6,237000	0,66	0,032820	
6,248000	0,66	0,038660	
6,259000	0,66	0,038860	
6,270000	0,66	0,032830	
6,281000	0,66	0,042040	
6,292000	0,66	0,049230	
6,303000	0,66	0,056350	
6,314000	0,66	0,052860	
6,325000	0,66	0,042890	
6,336000	0,66	0,049140	
6,347000	0,66	0,051080	
6,358000	0,66	0,047940	
6,369000	0,66	0,046500	
6,380000	0,66	0,031060	
6,391000	0,66	0,030040	
6,402000	0,66	0,044380	
6,413000	0,66	0,046700	
6,424000	0,66	0,044460	
6,435000	0,66	0,042770	
6,446000	0,66	0,047530	
6,457000	0,66	0,043720	
6,468000	0,66	0,036230	
6,479000	0,66	0,053330	
6,490000	0,66	0,059950	
6,501000	0,66	0,056310	
6,512000	0,66	0,059530	
6,523000	0,66	0,055160	
6,534000	0,66	0,043100	
6,545000	0,66	0,031030	
6,556000	0,66	0,019850	
6,567000	0,66	0,016060	
6,578000	0,66	0,028500	
6,589000	0,66	0,038560	
6,600000	0,66	0,038140	
6,611000	0,66	0,031760	
6,622000	0,66	0,034760	
6,633000	0,66	0,036390	
6,644000	0,66	0,031360	
6,655000	0,66	0,034720	
6,666000	0,66	0,029330	
6,677000	0,66	0,026250	
6,688000	0,66	0,027820	
6,699000	0,66	0,024600	
6,710000	0,66	0,034120	
6,721000	0,66	0,040360	
6,732000	0,66	0,046860	
6,743000	0,66	0,050110	
6,754000	0,66	0,062290	
6,765000	0,66	0,061800	
6,776000	0,66	0,055480	
6,787000	0,66	0,042470	
6,798000	0,66	0,044190	
6,809000	0,66	0,054260	
6,820000	0,66	0,048600	
6,831000	0,66	0,042420	
6,842000	0,66	0,044390	
6,853000	0,66	0,043810	
6,864000	0,66	0,047440	
6,875000	0,66	0,045330	
6,886000	0,66	0,043560	
6,897000	0,66	0,037360	
6,908000	0,66	0,035580	
6,919000	0,66	0,039350	
6,930000	0,66	0,043340	
6,941000	0,66	0,034440	
6,952000	0,66	0,028760	
6,963000	0,66	0,037440	
6,974000	0,66	0,046670	
6,985000	0,66	0,044290	
6,996000	0,66	0,041160	
7,007000	0,66	0,038360	
7,018000	0,66	0,037660	
7,029000	0,66	0,040490	
7,040000	0,66	0,027300	
7,051000	0,66	0,022230	
7,062000	0,66	0,028370	
7,073000	0,66	0,026570	
7,084000	0,66	0,037010	
7,095000	0,66	0,037690	
7,106000	0,66	0,033910	
7,117000	0,66	0,032010	
7,128000	0,66	0,025780	
7,139000	0,66	0,029480	
7,150000	0,66	0,030260	
7,161000	0,66	0,025930	
7,172000	0,66	0,029970	
7,183000	0,66	0,032110	
7,194000	0,66	0,031390	
7,205000	0,66	0,034140	
7,216000	0,66	0,035710	
7,227000	0,66	0,028170	
7,238000	0,66	0,020780	
7,249000	0,66	0,020280	
7,260000	0,66	0,019400	
7,271000	0,66	0,010800	
7,282000	0,66	0,008540	
7,293000	0,66	0,013900	
7,304000	0,66	0,018470	
7,315000	0,66	0,025080	
7,326000	0,66	0,035220	
7,337000	0,66	0,040440	
7,348000	0,66	0,036460	
7,359000	0,66	0,029730	
7,370000	0,66	0,021940	
7,381000	0,66	0,013800	
7,392000	0,66	0,012100	
7,403000	0,66	0,019190	
7,414000	0,66	0,024980	
7,425000	0,66	0,017190	
7,436000	0,66	0,015870	
7,447000	0,66	0,031680	
7,458000	0,66	0,035050	
7,469000	0,66	0,028880	
7,480000	0,66	0,028720	
7,491000	0,66	0,032420	
7,502000	0,66	0,042790	
7,513000	0,66	0,041210	
7,524000	0,66	0,029380	
7,535000	0,66	0,027760	
7,546000	0,66	0,024880	
7,557000	0,66	0,017310	
7,568000	0,66	0,020700	
7,579000	0,66	0,018400	
7,590000	0,66	0,021430	
7,601000	0,66	0,018170	
7,612000	0,66	0,006100	
7,623000	0,66	0,017000	
7,634000	0,66	0,029230	
7,645000	0,66	0,021470	
7,656000	0,66	0,018870	
7,667000	0,66	0,020710	
7,678000	0,66	0,019840	
7,689000	0,66	0,018010	
7,700000	0,66	0,024060	
7,711000	0,66	0,017240	
7,722000	0,66	0,010980	
7,733000	0,66	0,008500	
7,744000	0,66	0,008930	
7,755000	0,66	0,005640	
7,766000	0,66	-0,000350	
7,777000	0,66	0,013370	
7,788000	0,66	0,019260	
7,799000	0,66	0,015900	
7,810000	0,66	0,010270	
7,821000	0,66	0,006150	
7,832000	0,66	0,010310	
7,843000	0,66	0,017700	
7,854000	0,66	0,035690	
7,865000	0,66	0,035350	
7,876000	0,66	0,026420	
7,887000	0,66	0,019330	
7,898000	0,66	0,019030	
7,909000	0,66	0,022150	
7,920000	0,66	0,014850	
7,931000	0,66	0,006360	
7,942000	0,66	0,010540	
7,953000	0,66	0,015200	
7,964000	0,66	0,017690	
7,975000	0,66	0,010280	
7,986000	0,66	0,008000	
7,997000	0,66	0,006410	
8,008000	0,66	0,001330	
8,019000	0,66	0,011940	
8,030000	0,66	0,019180	
8,041000	0,66	0,019430	
8,052000	0,66	0,022580	
8,063000	0,66	0,021570	
8,074000	0,66	0,026700	
8,085000	0,66	0,030460	
8,096000	0,66	0,031270	
8,107000	0,66	0,032750	
8,118000	0,66	0,028940	
8,129000	0,66	0,030590	
8,140000	0,66	0,028090	
8,151000	0,66	0,025690	
8,162000	0,66	0,020850	
8,173000	0,66	0,010490	
8,184000	0,66	0,008340	
8,195000	0,66	0,011530	
8,206000	0,66	0,011470	
8,217000	0,66	0,019690	
8,228000	0,66	0,021230	
8,239000	0,66	0,028150	
8,250000	0,66	0,023120	
8,261000	0,66	0,015410	
8,272000	0,66	0,003040	
8,283000	0,66	0,004860	
8,294000	0,66	-0,000500	
8,305000	0,66	0,005810	
8,316000	0,66	0,006990	
8,327000	0,66	0,014700	
8,338000	0,66	0,016340	
8,349000	0,66	0,012730	
8,360000	0,66	0,006170	
8,371000	0,66	0,006610	
8,382000	0,66	0,003880	
8,393000	0,66	0,004360	
8,404000	0,66	0,014270	
8,415000	0,66	0,014580	
8,426000	0,66	0,005560	
8,437000	0,66	0,005600	
8,448000	0,66	0,005450	
8,459000	0,66	-0,002050	
8,470000	0,66	0,000870	
8,481000	0,66	0,006600	
8,492000	0,66	0,017040	
8,503000	0,66	0,013460	
8,514000	0,66	0,015310	
8,525000	0,66	0,010340	
8,536000	0,66	0,010810	
8,547000	0,66	0,004570	
8,558000	0,66	0,010390	
8,569000	0,66	0,011640	
8,580000	0,66	0,010360	
8,591000	0,66	0,024760	
8,602000	0,66	0,032110	
8,613000	0,66	0,020790	
8,624000	0,66	0,005410	
8,635000	0,66	-0,010030	
8,646000	0,66	-0,009420	
8,657000	0,66	-0,000780	
8,668000	0,66	0,007800	
8,679000	0,66	0,010830	
8,690000	0,66	0,010160	
8,701000	0,66	0,007170	
8,712000	0,66	0,013640	
8,723000	0,66	0,018540	
8,734000	0,66	0,014810	
8,745000	0,66	0,017480	
8,756000	0,66	0,019660	
8,767000	0,66	0,009540	
8,778000	0,66	0,000390	
8,789000	0,66	0,006540	
8,800000	0,66	0,005510	
8,811000	0,66	0,005070	
8,822000	0,66	0,012060	
8,833000	0,66	0,005040	
8,844000	0,66	0,002330	
8,855000	0,66	0,011790	
8,866000	0,66	0,020530	
8,877000	0,66	0,019630	
8,888000	0,66	0,011460	
8,899000	0,66	0,019550	
8,910000	0,66	0,025680	
8,921000	0,66	0,026290	
8,932000	0,66	0,021110	
8,943000	0,66	0,020680	
8,954000	0,66	0,021990	
8,965000	0,66	0,028780	
8,976000	0,66	0,024400	
8,987000	0,66	0,025030	
8,998000	0,66	0,029010	
9,009000	0,66	0,028160	
9,020000	0,66	0,025380	
9,031000	0,66	0,017810	
9,042000	0,66	0,009420	
9,053000	0,66	0,017340	
9,064000	0,66	0,016120	
9,075000	0,66	0,020110	
9,086000	0,66	0,027900	
9,097000	0,66	0,017150	
9,108000	0,66	0,022980	
9,119000	0,66	0,021740	
9,130000	0,66	0,025800	
9,141000	0,66	0,029380	
9,152000	0,66	0,027980	
9,163000	0,66	0,019970	
9,174000	0,66	0,017840	
9,185000	0,66	0,009040	
9,196000	0,66	0,016680	
9,207000	0,66	0,029670	
9,218000	0,66	0,022420	
9,229000	0,66	0,016020	
9,240000	0,66	0,025700	
9,251000	0,66	0,025570	
9,262000	0,66	0,026550	
9,273000	0,66	0,022000	
9,284000	0,66	0,016780	
9,295000	0,66	0,017260	
9,306000	0,66	0,027990	
9,317000	0,66	0,022640	
9,328000	0,66	0,023990	
9,339000	0,66	0,021800	
9,350000	0,66	0,016010	
9,361000	0,66	0,017860	
9,372000	0,66	0,012010	
9,383000	0,66	0,002020	
9,394000	0,66	0,005200	
9,405000	0,66	0,007850	
9,416000	0,66	0,002320	
9,427000	0,66	0,011300	
9,438000	0,66	0,019240	
9,449000	0,66	0,025210	
9,460000	0,66	0,029800	
9,471000	0,66	0,020580	
9,482000	0,66	0,025320	
9,493000	0,66	0,017260	
9,504000	0,66	0,002590	
9,515000	0,66	0,003280	
9,526000	0,66	0,007230	
9,537000	0,66	0,011060	
9,548000	0,66	0,018100	
9,559000	0,66	0,010040	
9,570000	0,66	-0,000430	
9,581000	0,66	0,009030	
9,592000	0,66	0,013860	
9,603000	0,66	0,019110	
9,614000	0,66	0,017510	
9,625000	0,66	0,010190	
9,636000	0,66	0,012130	
9,647000	0,66	0,017740	
9,658000	0,66	0,026180	
9,669000	0,66	0,019570	
9,680000	0,66	0,015690	
9,691000	0,66	0,016040	
9,702000	0,66	0,011040	
9,713000	0,66	0,022980	
9,724000	0,66	0,038590	
9,735000	0,66	0,038070	
9,746000	0,66	0,034040	
9,757000	0,66	0,035270	
9,768000	0,66	0,038140	
9,779000	0,66	0,038440	
9,790000	0,66	0,027580	
9,801000	0,66	0,020460	
9,812000	0,66	0,008320	
9,823000	0,66	0,002690	
9,834000	0,66	-0,005740	
9,845000	0,66	-0,007480	
9,856000	0,66	0,003640	
9,867000	0,66	0,013660	
9,878000	0,66	0,020720	
9,889000	0,66	0,015930	
9,900000	0,66	0,009230	
9,911000	0,66	0,002750	
9,922000	0,66	0,007030	
9,933000	0,66	0,025650	
9,944000	0,66	0,030160	
9,955000	0,66	0,018000	
9,966000	0,66	0,011920	
9,977000	0,66	0,010250	
9,988000	0,66	0,011760	
9,999000	0,66	0,011270	
10,010000	0,66	0,019640	
10,021000	0,66	0,017320	
10,032000	0,66	0,012370	
10,043000	0,66	0,008730	
10,054000	0,66	0,009810	
10,065000	0,66	0,017230	
10,076000	0,66	0,023260	
10,087000	0,66	0,027500	
10,098000	0,66	0,036950	
10,109000	0,66	0,043710	
10,120000	0,66	0,044360	
10,131000	0,66	0,042610	
10,142000	0,66	0,030570	
10,153000	0,66	0,019320	
10,164000	0,66	0,019610	
10,175000	0,66	0,014460	
10,186000	0,66	0,010110	
10,197000	0,66	0,009170	
10,208000	0,66	0,005930	
10,219000	0,66	0,012960	
10,230000	0,66	0,010860	
10,241000	0,66	0,015140	
10,252000	0,66	0,028440	
10,263000	0,66	0,024970	
10,274000	0,66	0,020530	
10,285000	0,66	0,015940	
10,296000	0,66	0,001380	
10,307000	0,66	0,000430	
10,318000	0,66	0,009900	
10,329000	0,66	0,014510	
10,340000	0,66	0,017380	
10,351000	0,66	0,020140	
10,362000	0,66	0,014900	
10,373000	0,66	0,011190	
10,384000	0,66	0,019220	
10,395000	0,66	0,024210	
10,406000	0,66	0,022610	
10,417000	0,66	0,015430	
10,428000	0,66	0,008690	
10,439000	0,66	0,011340	
10,450000	0,66	0,007340	
10,461000	0,66	0,008070	
10,472000	0,66	0,012040	
10,483000	0,66	0,012650	
10,494000	0,66	0,002210	
10,505000	0,66	-0,001400	
10,516000	0,66	0,009580	
10,527000	0,66	0,013500	
10,538000	0,66	0,009470	
10,549000	0,66	0,014960	
10,560000	0,66	0,013120	
10,571000	0,66	0,018380	
10,582000	0,66	0,019400	
10,593000	0,66	0,023550	
10,604000	0,66	0,020040	
10,615000	0,66	0,017810	
10,626000	0,66	0,010170	
10,637000	0,66	0,010470	
10,648000	0,66	0,018380	
10,659000	0,66	0,009730	
10,670000	0,66	0,009220	
10,681000	0,66	0,008740	
10,692000	0,66	0,012170	
10,703000	0,66	0,018660	
10,714000	0,66	0,023590	
10,725000	0,66	0,028730	
10,736000	0,66	0,032550	
10,747000	0,66	0,034590	
10,758000	0,66	0,024020	
10,769000	0,66	0,015480	
10,780000	0,66	0,015800	
10,791000	0,66	0,024340	
10,802000	0,66	0,027980	
10,813000	0,66	0,021100	
10,824000	0,66	0,019660	
10,835000	0,66	0,015490	
10,846000	0,66	0,012290	
10,857000	0,66	0,018960	
10,868000	0,66	0,018580	
10,879000	0,66	0,017600	
10,890000	0,66	0,029610	
10,901000	0,66	0,039900	
10,912000	0,66	0,041950	
10,923000	0,66	0,040060	
10,934000	0,66	0,033500	
10,945000	0,66	0,029600	
10,956000	0,66	0,021740	
10,967000	0,66	0,010400	
10,978000	0,66	0,005640	
10,989000	0,66	0,007490	
11,000000	0,66	0,007200	
11,011000	0,66	0,004460	
11,022000	0,66	0,000030	
11,033000	0,66	0,008210	
11,044000	0,66	0,011130	
11,055000	0,66	0,013290	
11,066000	0,66	0,016420	
11,077000	0,66	0,020290	
11,088000	0,66	0,014570	
11,099000	0,66	0,003190	
11,110000	0,66	0,014810	
11,121000	0,66	0,026440	
11,132000	0,66	0,024020	
11,143000	0,66	0,020420	
11,154000	0,66	0,015620	
11,165000	0,66	0,010570	
11,176000	0,66	0,000930	
11,187000	0,66	0,004550	
11,198000	0,66	0,005140	
11,209000	0,66	-0,000710	
11,220000	0,66	0,012980	
11,231000	0,66	0,023650	
11,242000	0,66	0,040070	
11,253000	0,66	0,034330	
11,264000	0,66	0,018550	
11,275000	0,66	0,014850	
11,286000	0,66	0,015540	
11,297000	0,66	0,027050	
11,308000	0,66	0,026180	
11,319000	0,66	0,012290	
11,330000	0,66	0,001320	
11,341000	0,66	0,014150	
11,352000	0,66	0,032690	
11,363000	0,66	0,019940	
11,374000	0,66	0,013930	
11,385000	0,66	0,007080	
11,396000	0,66	-0,000270	
11,407000	0,66	-0,004430	
11,418000	0,66	0,001880	
11,429000	0,66	0,003690	
11,440000	0,66	0,014870	
11,451000	0,66	0,015100	
11,462000	0,66	0,010690	
11,473000	0,66	0,004300	
11,484000	0,66	-0,001540	
11,495000	0,66	0,000470	
11,506000	0,66	0,003070	
11,517000	0,66	0,003750	
11,528000	0,66	0,012640	
11,539000	0,66	0,017230	
11,550000	0,66	0,012050	
11,561000	0,66	0,013660	
11,572000	0,66	0,015490	
11,583000	0,66	0,015780	
11,594000	0,66	0,006300	
11,605000	0,66	0,004910	
11,616000	0,66	0,005100	
11,627000	0,66	0,006110	
11,638000	0,66	0,010670	
11,649000	0,66	-0,006970	
11,660000	0,66	-0,012570	
11,671000	0,66	-0,005750	
11,682000	0,66	0,002510	
11,693000	0,66	-0,000470	
11,704000	0,66	-0,002380	
11,715000	0,66	-0,000410	
11,726000	0,66	0,002800	
11,737000	0,66	0,018380	
11,748000	0,66	0,020600	
11,759000	0,66	0,013060	
11,770000	0,66	0,010980	
11,781000	0,66	0,021510	
11,792000	0,66	0,023450	
11,803000	0,66	0,015810	
11,814000	0,66	0,006800	
11,825000	0,66	-0,006210	
11,836000	0,66	-0,008660	
11,847000	0,66	-0,015330	
11,858000	0,66	-0,009080	
11,869000	0,66	-0,000300	
11,880000	0,66	0,003630	
11,891000	0,66	0,008740	
11,902000	0,66	0,006580	
11,913000	0,66	0,006150	
11,924000	0,66	0,013660	
11,935000	0,66	0,006130	
11,946000	0,66	0,016540	
11,957000	0,66	0,012250	
11,968000	0,66	0,009480	
11,979000	0,66	0,015390	
11,990000	0,66	0,017570	
12,001000	0,66	0,011150	
12,012000	0,66	0,005500	
12,023000	0,66	0,007380	
12,034000	0,66	0,008680	
12,045000	0,66	0,003070	
12,056000	0,66	0,005400	
12,067000	0,66	0,004670	
12,078000	0,66	-0,000750	
12,089000	0,66	-0,002100	
12,100000	0,66	-0,011480	
12,111000	0,66	-0,011020	
12,122000	0,66	-0,019460	
12,133000	0,66	-0,020900	
12,144000	0,66	-0,013600	
12,155000	0,66	-0,010300	
12,166000	0,66	-0,013000	
12,177000	0,66	-0,010220	
12,188000	0,66	-0,012170	
12,199000	0,66	-0,016580	
12,210000	0,66	-0,013910	
12,221000	0,66	-0,019330	
12,232000	0,66	-0,024340	
12,243000	0,66	-0,016450	
12,254000	0,66	-0,010680	
12,265000	0,66	-0,016560	
12,276000	0,66	-0,020110	
12,287000	0,66	-0,015900	
12,298000	0,66	-0,013450	
12,309000	0,66	-0,013120	
12,320000	0,66	-0,019260	
12,331000	0,66	-0,020180	
12,342000	0,66	-0,024380	
12,353000	0,66	-0,025140	
12,364000	0,66	-0,022860	
12,375000	0,66	-0,025500	
12,386000	0,66	-0,012750	
12,397000	0,66	-0,002110	
12,408000	0,66	0,003390	
12,419000	0,66	0,006010	
12,430000	0,66	-0,001960	
12,441000	0,66	-0,012590	
12,452000	0,66	-0,011350	
12,463000	0,66	-0,009190	
12,474000	0,66	-0,005210	
12,485000	0,66	-0,011270	
12,496000	0,66	-0,010360	
12,507000	0,66	-0,012350	
12,518000	0,66	0,000620	
12,529000	0,66	-0,000070	
12,540000	0,66	-0,001670	
12,551000	0,66	-0,002500	
12,562000	0,66	0,006090	
12,573000	0,66	0,002470	
12,584000	0,66	-0,000370	
12,595000	0,66	0,005800	
12,606000	0,66	0,004130	
12,617000	0,66	0,004440	
12,628000	0,66	-0,001320	
12,639000	0,66	0,001290	
12,650000	0,66	-0,006250	
12,661000	0,66	-0,006960	
12,672000	0,66	-0,007710	
12,683000	0,66	-0,015850	
12,694000	0,66	-0,010220	
12,705000	0,66	-0,010300	
12,716000	0,66	-0,011760	
12,727000	0,66	-0,021210	
12,738000	0,66	-0,013370	
12,749000	0,66	-0,005180	
12,760000	0,66	-0,005530	
12,771000	0,66	-0,015380	
12,782000	0,66	-0,019600	
12,793000	0,66	-0,015800	
12,804000	0,66	-0,008100	
12,815000	0,66	-0,006630	
12,826000	0,66	-0,012400	
12,837000	0,66	-0,009850	
12,848000	0,66	-0,013370	
12,859000	0,66	-0,022870	
12,870000	0,66	-0,027740	
12,881000	0,66	-0,028770	
12,892000	0,66	-0,029960	
12,903000	0,66	-0,031270	
12,914000	0,66	-0,019030	
12,925000	0,66	-0,000050	
12,936000	0,66	-0,001320	
12,947000	0,66	-0,007390	
12,958000	0,66	-0,004490	
12,969000	0,66	-0,007330	
12,980000	0,66	-0,009470	
12,991000	0,66	-0,010900	
13,002000	0,66	-0,000780	
13,013000	0,66	0,000040	
13,024000	0,66	-0,008080	
13,035000	0,66	-0,011220	
13,046000	0,66	-0,018910	
13,057000	0,66	-0,027750	
13,068000	0,66	-0,027240	
13,079000	0,66	-0,025890	
13,090000	0,66	-0,014200	
13,101000	0,66	-0,014310	
13,112000	0,66	-0,014250	
13,123000	0,66	-0,016990	
13,134000	0,66	-0,016210	
13,145000	0,66	-0,011060	
13,156000	0,66	-0,014540	
13,167000	0,66	-0,023580	
13,178000	0,66	-0,026280	
13,189000	0,66	-0,023480	
13,200000	0,66	-0,021340	
13,211000	0,66	-0,020830	
13,222000	0,66	-0,016930	
13,233000	0,66	-0,014890	
13,244000	0,66	-0,001930	
13,255000	0,66	-0,005530	
13,266000	0,66	-0,000770	
13,277000	0,66	0,002810	
13,288000	0,66	0,010730	
13,299000	0,66	-0,005180	
13,310000	0,66	-0,013580	
13,321000	0,66	-0,011520	
13,332000	0,66	-0,010780	
13,343000	0,66	-0,007130	
13,354000	0,66	-0,001730	
13,365000	0,66	-0,001000	
13,376000	0,66	-0,013570	
13,387000	0,66	-0,023790	
13,398000	0,66	-0,035400	
13,409000	0,66	-0,030670	
13,420000	0,66	-0,024180	
13,431000	0,66	-0,024600	
13,442000	0,66	-0,032350	
13,453000	0,66	-0,024940	
13,464000	0,66	-0,007310	
13,475000	0,66	-0,005920	
13,486000	0,66	0,004410	
13,497000	0,66	0,002300	
13,508000	0,66	-0,011660	
13,519000	0,66	-0,021730	
13,530000	0,66	-0,021000	
13,541000	0,66	-0,010200	
13,552000	0,66	-0,007370	
13,563000	0,66	-0,010180	
13,574000	0,66	-0,006550	
13,585000	0,66	-0,008420	
13,596000	0,66	-0,014110	
13,607000	0,66	-0,015770	
13,618000	0,66	-0,016840	
13,629000	0,66	-0,013000	
13,640000	0,66	-0,014190	
13,651000	0,66	-0,024900	
13,662000	0,66	-0,025790	
13,673000	0,66	-0,017590	
13,684000	0,66	-0,013400	
13,695000	0,66	-0,012890	
13,706000	0,66	-0,011340	
13,717000	0,66	-0,009390	
13,728000	0,66	-0,000560	
13,739000	0,66	0,005130	
13,750000	0,66	0,002480	
13,761000	0,66	-0,010170	
13,772000	0,66	-0,014500	
13,783000	0,66	-0,013640	
13,794000	0,66	-0,020300	
13,805000	0,66	-0,011470	
13,816000	0,66	-0,015170	
13,827000	0,66	-0,021460	
13,838000	0,66	-0,019180	
13,849000	0,66	-0,018200	
13,860000	0,66	-0,017620	
13,871000	0,66	-0,017460	
13,882000	0,66	-0,022610	
13,893000	0,66	-0,022960	
13,904000	0,66	-0,011980	
13,915000	0,66	-0,020960	
13,926000	0,66	-0,022070	
13,937000	0,66	-0,017810	
13,948000	0,66	-0,015850	
13,959000	0,66	-0,009650	
13,970000	0,66	0,000840	
13,981000	0,66	0,002630	
13,992000	0,66	-0,003200	
14,003000	0,66	-0,008470	
14,014000	0,66	-0,014780	
14,025000	0,66	-0,017080	
14,036000	0,66	-0,022620	
14,047000	0,66	-0,021010	
14,058000	0,66	-0,013550	
14,069000	0,66	-0,022800	
14,080000	0,66	-0,013950	
14,091000	0,66	-0,003220	
14,102000	0,66	-0,007110	
14,113000	0,66	-0,011780	
14,124000	0,66	-0,001000	
14,135000	0,66	-0,013820	
14,146000	0,66	-0,024430	
14,157000	0,66	-0,013380	
14,168000	0,66	-0,007990	
14,179000	0,66	-0,002540	
14,190000	0,66	0,002570	
14,201000	0,66	0,003280	
14,212000	0,66	-0,001340	
14,223000	0,66	-0,008590	
14,234000	0,66	-0,017400	
14,245000	0,66	-0,030770	
14,256000	0,66	-0,030870	
14,267000	0,66	-0,021190	
14,278000	0,66	-0,017750	
14,289000	0,66	-0,018480	
14,300000	0,66	-0,018950	
14,311000	0,66	-0,026200	
14,322000	0,66	-0,025900	
14,333000	0,66	-0,022560	
14,344000	0,66	-0,028100	
14,355000	0,66	-0,025170	
14,366000	0,66	-0,027260	
14,377000	0,66	-0,021900	
14,388000	0,66	-0,014400	
14,399000	0,66	-0,013180	
14,410000	0,66	-0,011230	
14,421000	0,66	-0,017360	
14,432000	0,66	-0,023020	
14,443000	0,66	-0,019530	
14,454000	0,66	-0,014760	
14,465000	0,66	-0,019620	
14,476000	0,66	-0,032450	
14,487000	0,66	-0,032110	
14,498000	0,66	-0,031830	
14,509000	0,66	-0,032840	
14,520000	0,66	-0,031020	
14,531000	0,66	-0,027010	
14,542000	0,66	-0,024790	
14,553000	0,66	-0,018140	
14,564000	0,66	-0,016070	
14,575000	0,66	-0,017010	
14,586000	0,66	-0,026680	
14,597000	0,66	-0,032570	
14,608000	0,66	-0,019590	
14,619000	0,66	-0,015700	
14,630000	0,66	-0,010270	
14,641000	0,66	-0,012600	
14,652000	0,66	-0,014530	
14,663000	0,66	-0,017000	
14,674000	0,66	-0,026770	
14,685000	0,66	-0,031300	
14,696000	0,66	-0,037600	
14,707000	0,66	-0,035140	
14,718000	0,66	-0,029350	
14,729000	0,66	-0,024690	
14,740000	0,66	-0,015910	
14,751000	0,66	-0,021400	
14,762000	0,66	-0,024500	
14,773000	0,66	-0,022820	
14,784000	0,66	-0,021660	
14,795000	0,66	-0,018680	
14,806000	0,66	-0,017380	
14,817000	0,66	-0,028110	
14,828000	0,66	-0,027860	
14,839000	0,66	-0,020560	
14,850000	0,66	-0,012420	
14,861000	0,66	-0,012680	
14,872000	0,66	-0,023910	
14,883000	0,66	-0,028780	
14,894000	0,66	-0,025540	
14,905000	0,66	-0,022650	
14,916000	0,66	-0,026880	
14,927000	0,66	-0,029500	
14,938000	0,66	-0,035670	
14,949000	0,66	-0,039630	
14,960000	0,66	-0,036790	
14,971000	0,66	-0,038650	
14,982000	0,66	-0,040970	
14,993000	0,66	-0,041080	
15,004000	0,66	-0,042110	
15,015000	0,66	-0,049120	
15,026000	0,66	-0,056540	
15,037000	0,66	-0,050060	
15,048000	0,66	-0,044600	
15,059000	0,66	-0,048240	
15,070000	0,66	-0,050020	
15,081000	0,66	-0,043700	
15,092000	0,66	-0,025880	
15,103000	0,66	-0,013760	
15,114000	0,66	-0,016630	
15,125000	0,66	-0,027500	
15,136000	0,66	-0,027110	
15,147000	0,66	-0,016950	
15,158000	0,66	-0,014970	
15,169000	0,66	-0,016550	
15,180000	0,66	-0,014160	
15,191000	0,66	-0,017930	
15,202000	0,66	-0,020380	
15,213000	0,66	-0,023320	
15,224000	0,66	-0,032270	
15,235000	0,66	-0,041360	
15,246000	0,66	-0,041440	
15,257000	0,66	-0,030640	
15,268000	0,66	-0,009400	
15,279000	0,66	-0,013390	
15,290000	0,66	-0,021800	
15,301000	0,66	-0,035190	
15,312000	0,66	-0,041590	
15,323000	0,66	-0,039800	
15,334000	0,66	-0,020330	
15,345000	0,66	-0,018950	
15,356000	0,66	-0,028290	
15,367000	0,66	-0,024300	
15,378000	0,66	-0,017460	
15,389000	0,66	-0,019530	
15,400000	0,66	-0,016060	
15,411000	0,66	-0,014670	
15,422000	0,66	-0,019250	
15,433000	0,66	-0,025970	
15,444000	0,66	-0,027310	
15,455000	0,66	-0,028760	
15,466000	0,66	-0,028640	
15,477000	0,66	-0,023240	
15,488000	0,66	-0,031050	
15,499000	0,66	-0,032150	
15,510000	0,66	-0,035880	
15,521000	0,66	-0,040290	
15,532000	0,66	-0,044020	
15,543000	0,66	-0,041770	
15,554000	0,66	-0,042960	
15,565000	0,66	-0,035920	
15,576000	0,66	-0,027660	
15,587000	0,66	-0,030720	
15,598000	0,66	-0,043040	
15,609000	0,66	-0,047960	
15,620000	0,66	-0,040420	
15,631000	0,66	-0,042800	
15,642000	0,66	-0,044740	
15,653000	0,66	-0,040450	
15,664000	0,66	-0,039170	
15,675000	0,66	-0,039490	
15,686000	0,66	-0,034700	
15,697000	0,66	-0,028760	
15,708000	0,66	-0,026450	
15,719000	0,66	-0,023990	
15,730000	0,66	-0,026750	
15,741000	0,66	-0,027670	
15,752000	0,66	-0,024100	
15,763000	0,66	-0,022770	
15,774000	0,66	-0,014360	
15,785000	0,66	-0,011790	
15,796000	0,66	-0,018210	
15,807000	0,66	-0,023450	
15,818000	0,66	-0,024530	
15,829000	0,66	-0,025530	
15,840000	0,66	-0,019930	
15,851000	0,66	-0,028820	
15,862000	0,66	-0,038570	
15,873000	0,66	-0,036470	
15,884000	0,66	-0,032900	
15,895000	0,66	-0,039190	
15,906000	0,66	-0,035190	
15,917000	0,66	-0,034040	
15,928000	0,66	-0,029410	
15,939000	0,66	-0,024290	
15,950000	0,66	-0,024650	
15,961000	0,66	-0,018060	
15,972000	0,66	-0,017720	
15,983000	0,66	-0,021800	
15,994000	0,66	-0,024090	
16,005000	0,66	-0,024560	
16,016000	0,66	-0,019390	
16,027000	0,66	-0,021180	
16,038000	0,66	-0,019870	
16,049000	0,66	-0,028710	
16,060000	0,66	-0,029900	
16,071000	0,66	-0,039010	
16,082000	0,66	-0,043680	
16,093000	0,66	-0,038450	
16,104000	0,66	-0,038000	
16,115000	0,66	-0,037520	
16,126000	0,66	-0,038480	
16,137000	0,66	-0,031470	
16,148000	0,66	-0,021680	
16,159000	0,66	-0,036750	
16,170000	0,66	-0,050880	
16,181000	0,66	-0,049380	
16,192000	0,66	-0,027220	
16,203000	0,66	-0,020920	
16,214000	0,66	-0,023280	
16,225000	0,66	-0,025160	
16,236000	0,66	-0,025380	
16,247000	0,66	-0,028580	
16,258000	0,66	-0,031230	
16,269000	0,66	-0,028520	
16,280000	0,66	-0,034210	
16,291000	0,66	-0,037690	
16,302000	0,66	-0,034120	
16,313000	0,66	-0,036860	
16,324000	0,66	-0,032340	
16,335000	0,66	-0,026220	
16,346000	0,66	-0,022940	
16,357000	0,66	-0,020450	
16,368000	0,66	-0,018420	
16,379000	0,66	-0,015840	
16,390000	0,66	-0,015870	
16,401000	0,66	-0,014240	
16,412000	0,66	-0,014400	
16,423000	0,66	-0,024250	
16,434000	0,66	-0,034790	
16,445000	0,66	-0,037670	
16,456000	0,66	-0,030630	
16,467000	0,66	-0,024410	
16,478000	0,66	-0,032170	
16,489000	0,66	-0,038190	
16,500000	0,66	-0,038880	
16,511000	0,66	-0,038770	
16,522000	0,66	-0,034460	
16,533000	0,66	-0,036680	
16,544000	0,66	-0,043590	
16,555000	0,66	-0,055530	
16,566000	0,66	-0,056780	
16,577000	0,66	-0,044520	
16,588000	0,66	-0,042980	
16,599000	0,66	-0,042400	
16,610000	0,66	-0,041920	
16,621000	0,66	-0,043070	
16,632000	0,66	-0,053100	
16,643000	0,66	-0,044630	
16,654000	0,66	-0,034610	
16,665000	0,66	-0,030320	
16,676000	0,66	-0,043770	
16,687000	0,66	-0,038500	
16,698000	0,66	-0,040710	
16,709000	0,66	-0,037320	
16,720000	0,66	-0,039380	
16,731000	0,66	-0,041380	
16,742000	0,66	-0,040700	
16,753000	0,66	-0,030730	
16,764000	0,66	-0,027680	
16,775000	0,66	-0,025560	
16,786000	0,66	-0,033250	
16,797000	0,66	-0,024470	
16,808000	0,66	-0,031290	
16,819000	0,66	-0,033170	
16,830000	0,66	-0,024650	
16,841000	0,66	-0,029830	
16,852000	0,66	-0,029190	
16,863000	0,66	-0,037420	
16,874000	0,66	-0,041260	
16,885000	0,66	-0,045550	
16,896000	0,66	-0,051630	
16,907000	0,66	-0,048490	
16,918000	0,66	-0,042590	
16,929000	0,66	-0,049180	
16,940000	0,66	-0,049590	
16,951000	0,66	-0,047960	
16,962000	0,66	-0,053630	
16,973000	0,66	-0,048130	
16,984000	0,66	-0,035900	
16,995000	0,66	-0,035140	
17,006000	0,66	-0,039740	
17,017000	0,66	-0,036340	
17,028000	0,66	-0,042700	
17,039000	0,66	-0,049850	
17,050000	0,66	-0,058260	
17,061000	0,66	-0,065220	
17,072000	0,66	-0,063930	
17,083000	0,66	-0,064260	
17,094000	0,66	-0,059440	
17,105000	0,66	-0,051020	
17,116000	0,66	-0,047400	
17,127000	0,66	-0,054950	
17,138000	0,66	-0,063340	
17,149000	0,66	-0,057500	
17,160000	0,66	-0,051980	
17,171000	0,66	-0,045920	
17,182000	0,66	-0,052210	
17,193000	0,66	-0,063390	
17,204000	0,66	-0,049970	
17,215000	0,66	-0,030830	
17,226000	0,66	-0,031680	
17,237000	0,66	-0,032440	
17,248000	0,66	-0,030190	
17,259000	0,66	-0,035430	
17,270000	0,66	-0,033300	
17,281000	0,66	-0,029660	
17,292000	0,66	-0,034240	
17,303000	0,66	-0,045150	
17,314000	0,66	-0,044590	
17,325000	0,66	-0,044310	
17,336000	0,66	-0,043730	
17,347000	0,66	-0,047310	
17,358000	0,66	-0,033220	
17,369000	0,66	-0,037330	
17,380000	0,66	-0,047880	
17,391000	0,66	-0,038100	
17,402000	0,66	-0,030550	
17,413000	0,66	-0,038400	
17,424000	0,66	-0,040140	
17,435000	0,66	-0,041800	
17,446000	0,66	-0,052410	
17,457000	0,66	-0,046690	
17,468000	0,66	-0,051910	
17,479000	0,66	-0,050730	
17,490000	0,66	-0,041480	
17,501000	0,66	-0,034050	
17,512000	0,66	-0,037670	
17,523000	0,66	-0,033830	
17,534000	0,66	-0,037420	
17,545000	0,66	-0,025930	
17,556000	0,66	-0,019340	
17,567000	0,66	-0,013590	
17,578000	0,66	-0,016990	
17,589000	0,66	-0,018450	
17,600000	0,66	-0,019490	
17,611000	0,66	-0,024120	
17,622000	0,66	-0,027200	
17,633000	0,66	-0,037960	
17,644000	0,66	-0,044800	
17,655000	0,66	-0,040710	
17,666000	0,66	-0,025180	
17,677000	0,66	-0,022460	
17,688000	0,66	-0,030300	
17,699000	0,66	-0,039890	
17,710000	0,66	-0,041970	
17,721000	0,66	-0,036240	
17,732000	0,66	-0,034410	
17,743000	0,66	-0,027550	
17,754000	0,66	-0,024080	
17,765000	0,66	-0,025340	
17,776000	0,66	-0,021300	
17,787000	0,66	-0,012790	
17,798000	0,66	-0,011850	
17,809000	0,66	-0,018230	
17,820000	0,66	-0,027190	
17,831000	0,66	-0,032270	
17,842000	0,66	-0,030420	
17,853000	0,66	-0,034240	
17,864000	0,66	-0,036890	
17,875000	0,66	-0,041010	
17,886000	0,66	-0,046200	
17,897000	0,66	-0,041080	
17,908000	0,66	-0,031350	
17,919000	0,66	-0,047140	
17,930000	0,66	-0,051410	
17,941000	0,66	-0,047510	
17,952000	0,66	-0,044880	
17,963000	0,66	-0,037450	
17,974000	0,66	-0,036380	
17,985000	0,66	-0,032460	
17,996000	0,66	-0,025880	
18,007000	0,66	-0,034990	
18,018000	0,66	-0,034060	
18,029000	0,66	-0,034610	
18,040000	0,66	-0,037110	
18,051000	0,66	-0,029900	
18,062000	0,66	-0,031230	
18,073000	0,66	-0,040460	
18,084000	0,66	-0,053980	
18,095000	0,66	-0,043810	
18,106000	0,66	-0,041060	
18,117000	0,66	-0,040290	
18,128000	0,66	-0,036950	
18,139000	0,66	-0,034470	
18,150000	0,66	-0,038230	
18,161000	0,66	-0,025670	
18,172000	0,66	-0,010470	
18,183000	0,66	-0,016150	
18,194000	0,66	-0,019840	
18,205000	0,66	-0,014420	
18,216000	0,66	-0,021890	
18,227000	0,66	-0,025040	
18,238000	0,66	-0,021100	
18,249000	0,66	-0,017110	
18,260000	0,66	-0,018850	
18,271000	0,66	-0,015810	
18,282000	0,66	-0,030030	
18,293000	0,66	-0,032780	
18,304000	0,66	-0,039650	
18,315000	0,66	-0,049120	
18,326000	0,66	-0,049610	
18,337000	0,66	-0,035780	
18,348000	0,66	-0,021930	
18,359000	0,66	-0,017610	
18,370000	0,66	-0,025940	
18,381000	0,66	-0,032990	
18,392000	0,66	-0,033170	
18,403000	0,66	-0,029390	
18,414000	0,66	-0,031020	
18,425000	0,66	-0,027920	
18,436000	0,66	-0,015840	
18,447000	0,66	-0,013350	
18,458000	0,66	-0,022040	
18,469000	0,66	-0,021600	
18,480000	0,66	-0,026180	
18,491000	0,66	-0,039110	
18,502000	0,66	-0,039190	
18,513000	0,66	-0,031880	
18,524000	0,66	-0,027870	
18,535000	0,66	-0,025530	
18,546000	0,66	-0,021790	
18,557000	0,66	-0,024230	
18,568000	0,66	-0,032100	
18,579000	0,66	-0,029710	
18,590000	0,66	-0,017090	
18,601000	0,66	-0,009140	
18,612000	0,66	-0,007390	
18,623000	0,66	-0,015630	
18,634000	0,66	-0,029350	
18,645000	0,66	-0,030390	
18,656000	0,66	-0,034950	
18,667000	0,66	-0,034970	
18,678000	0,66	-0,038390	
18,689000	0,66	-0,040850	
18,700000	0,66	-0,032490	
18,711000	0,66	-0,018090	
18,722000	0,66	-0,012330	
18,733000	0,66	-0,016670	
18,744000	0,66	-0,016730	
18,755000	0,66	-0,033770	
18,766000	0,66	-0,030880	
18,777000	0,66	-0,015470	
18,788000	0,66	-0,025900	
18,799000	0,66	-0,031230	
18,810000	0,66	-0,041470	
18,821000	0,66	-0,038550	
18,832000	0,66	-0,032980	
18,843000	0,66	-0,028340	
18,854000	0,66	-0,029460	
18,865000	0,66	-0,039780	
18,876000	0,66	-0,038690	
18,887000	0,66	-0,025950	
18,898000	0,66	-0,032530	
18,909000	0,66	-0,042750	
18,920000	0,66	-0,042100	
18,931000	0,66	-0,041460	
18,942000	0,66	-0,041310	
18,953000	0,66	-0,041220	
18,964000	0,66	-0,027500	
18,975000	0,66	-0,026150	
18,986000	0,66	-0,036670	
18,997000	0,66	-0,048700	
19,008000	0,66	-0,044200	
19,019000	0,66	-0,036950	
19,030000	0,66	-0,026470	
19,041000	0,66	-0,014920	
19,052000	0,66	-0,006880	
19,063000	0,66	-0,012650	
19,074000	0,66	-0,030280	
19,085000	0,66	-0,031990	
19,096000	0,66	-0,030270	
19,107000	0,66	-0,023600	
19,118000	0,66	-0,023950	
19,129000	0,66	-0,026570	
19,140000	0,66	-0,030970	
19,151000	0,66	-0,042680	
19,162000	0,66	-0,058470	
19,173000	0,66	-0,061640	
19,184000	0,66	-0,047730	
19,195000	0,66	-0,040400	
19,206000	0,66	-0,034910	
19,217000	0,66	-0,015760	
19,228000	0,66	-0,006230	
19,239000	0,66	-0,020020	
19,250000	0,66	-0,030300	
19,261000	0,66	-0,031530	
19,272000	0,66	-0,036900	
19,283000	0,66	-0,036010	
19,294000	0,66	-0,035490	
19,305000	0,66	-0,030960	
19,316000	0,66	-0,024530	
19,327000	0,66	-0,021080	
19,338000	0,66	-0,022200	
19,349000	0,66	-0,022750	
19,360000	0,66	-0,026300	
19,371000	0,66	-0,035810	
19,382000	0,66	-0,029430	
19,393000	0,66	-0,024530	
19,404000	0,66	-0,028470	
19,415000	0,66	-0,028030	
19,426000	0,66	-0,030970	
19,437000	0,66	-0,026800	
19,448000	0,66	-0,034510	
19,459000	0,66	-0,032690	
19,470000	0,66	-0,027420	
19,481000	0,66	-0,025740	
19,492000	0,66	-0,014490	
19,503000	0,66	-0,010620	
19,514000	0,66	-0,015210	
19,525000	0,66	-0,021970	
19,536000	0,66	-0,027900	
19,547000	0,66	-0,029750	
19,558000	0,66	-0,027660	
19,569000	0,66	-0,021860	
19,580000	0,66	-0,029330	
19,591000	0,66	-0,035530	
19,602000	0,66	-0,035130	
19,613000	0,66	-0,035840	
19,624000	0,66	-0,028210	
19,635000	0,66	-0,030760	
19,646000	0,66	-0,031690	
19,657000	0,66	-0,039100	
19,668000	0,66	-0,049110	
19,679000	0,66	-0,054530	
19,690000	0,66	-0,040550	
19,701000	0,66	-0,029460	
19,712000	0,66	-0,031430	
19,723000	0,66	-0,026730	
19,734000	0,66	-0,028190	
19,745000	0,66	-0,038420	
19,756000	0,66	-0,042780	
19,767000	0,66	-0,041440	
19,778000	0,66	-0,044150	
19,789000	0,66	-0,045970	
19,800000	0,66	-0,047820	
19,811000	0,66	-0,049640	
19,822000	0,66	-0,046610	
19,833000	0,66	-0,043580	
19,844000	0,66	-0,037230	
19,855000	0,66	-0,031880	
19,866000	0,66	-0,034910	
19,877000	0,66	-0,032850	
19,888000	0,66	-0,032800	
19,899000	0,66	-0,029790	
19,910000	0,66	-0,028900	
19,921000	0,66	-0,037190	
19,932000	0,66	-0,043040	
19,943000	0,66	-0,051930	
19,954000	0,66	-0,050140	
19,965000	0,66	-0,050000	
19,976000	0,66	-0,051930	
19,987000	0,66	-0,052780	
19,998000	0,66	-0,052050	
20,009000	0,66	-0,045190	
20,020000	0,66	-0,044600	
20,031000	0,66	-0,055290	
20,042000	0,66	-0,055780	
20,053000	0,66	-0,058710	
20,064000	0,66	-0,046590	
20,075000	0,66	-0,039630	
20,086000	0,66	-0,037040	
20,097000	0,66	-0,033160	
20,108000	0,66	-0,035740	
20,119000	0,66	-0,037230	
20,130000	0,66	-0,040040	
20,141000	0,66	-0,045960	
20,152000	0,66	-0,046970	
20,163000	0,66	-0,056190	
20,174000	0,66	-0,062900	
20,185000	0,66	-0,051680	
20,196000	0,66	-0,052550	
20,207000	0,66	-0,056150	
20,218000	0,66	-0,055270	
20,229000	0,66	-0,048530	
20,240000	0,66	-0,035910	
20,251000	0,66	-0,028790	
20,262000	0,66	-0,042200	
20,273000	0,66	-0,049460	
20,284000	0,66	-0,039580	
20,295000	0,66	-0,042320	
20,306000	0,66	-0,046420	
20,317000	0,66	-0,046270	
20,328000	0,66	-0,040310	
20,339000	0,66	-0,045350	
20,350000	0,66	-0,050670	
20,361000	0,66	-0,048500	
20,372000	0,66	-0,046840	
20,383000	0,66	-0,043210	
20,394000	0,66	-0,043790	
20,405000	0,66	-0,050460	
20,416000	0,66	-0,052770	
20,427000	0,66	-0,057260	
20,438000	0,66	-0,059710	
20,449000	0,66	-0,051300	
20,460000	0,66	-0,044110	
20,471000	0,66	-0,048880	
20,482000	0,66	-0,048310	
20,493000	0,66	-0,036980	
20,504000	0,66	-0,029940	
20,515000	0,66	-0,034500	
20,526000	0,66	-0,043810	
20,537000	0,66	-0,052400	
20,548000	0,66	-0,053970	
20,559000	0,66	-0,048580	
20,570000	0,66	-0,036500	
20,581000	0,66	-0,030820	
20,592000	0,66	-0,040920	
20,603000	0,66	-0,048810	
20,614000	0,66	-0,042370	
20,625000	0,66	-0,033370	
20,636000	0,66	-0,039390	
20,647000	0,66	-0,048870	
20,658000	0,66	-0,051780	
20,669000	0,66	-0,052670	
20,680000	0,66	-0,044830	
20,691000	0,66	-0,048450	
20,702000	0,66	-0,056940	
20,713000	0,66	-0,063920	
20,724000	0,66	-0,060860	
20,735000	0,66	-0,058660	
20,746000	0,66	-0,055270	
20,757000	0,66	-0,058830	
20,768000	0,66	-0,058970	
20,779000	0,66	-0,051660	
20,790000	0,66	-0,051360	
20,801000	0,66	-0,057210	
20,812000	0,66	-0,058030	
20,823000	0,66	-0,048510	
20,834000	0,66	-0,049340	
20,845000	0,66	-0,057050	
20,856000	0,66	-0,058280	
20,867000	0,66	-0,065420	
20,878000	0,66	-0,067310	
20,889000	0,66	-0,061920	
20,900000	0,66	-0,056980	
20,911000	0,66	-0,056870	
20,922000	0,66	-0,047040	
20,933000	0,66	-0,048860	
20,944000	0,66	-0,056770	
20,955000	0,66	-0,062050	
20,966000	0,66	-0,053590	
20,977000	0,66	-0,040410	
20,988000	0,66	-0,052840	
20,999000	0,66	-0,067810	
21,010000	0,66	-0,073000	
21,021000	0,66	-0,070970	
21,032000	0,66	-0,074330	
21,043000	0,66	-0,074560	
21,054000	0,66	-0,068400	
21,065000	0,66	-0,056660	
21,076000	0,66	-0,051690	
21,087000	0,66	-0,047190	
21,098000	0,66	-0,039310	
21,109000	0,66	-0,042790	
21,120000	0,66	-0,046380	
21,131000	0,66	-0,039530	
21,142000	0,66	-0,042490	
21,153000	0,66	-0,045380	
21,164000	0,66	-0,050820	
21,175000	0,66	-0,051420	
21,186000	0,66	-0,051630	
21,197000	0,66	-0,060220	
21,208000	0,66	-0,059210	
21,219000	0,66	-0,053700	
21,230000	0,66	-0,048040	
21,241000	0,66	-0,049320	
21,252000	0,66	-0,051570	
21,263000	0,66	-0,047420	
21,274000	0,66	-0,051040	
21,285000	0,66	-0,056340	
21,296000	0,66	-0,058300	
21,307000	0,66	-0,057560	
21,318000	0,66	-0,055360	
21,329000	0,66	-0,055220	
21,340000	0,66	-0,057560	
21,351000	0,66	-0,060230	
21,362000	0,66	-0,052090	
21,373000	0,66	-0,053760	
21,384000	0,66	-0,056810	
21,395000	0,66	-0,058140	
21,406000	0,66	-0,063710	
21,417000	0,66	-0,057440	
21,428000	0,66	-0,049190	
21,439000	0,66	-0,046000	
21,450000	0,66	-0,057590	
21,461000	0,66	-0,051150	
21,472000	0,66	-0,052190	
21,483000	0,66	-0,056080	
21,494000	0,66	-0,060140	
21,505000	0,66	-0,059570	
21,516000	0,66	-0,058810	
21,527000	0,66	-0,052120	
21,538000	0,66	-0,054770	
21,549000	0,66	-0,060080	
21,560000	0,66	-0,059450	
21,571000	0,66	-0,056680	
21,582000	0,66	-0,063280	
21,593000	0,66	-0,058160	
21,604000	0,66	-0,061160	
21,615000	0,66	-0,061880	
21,626000	0,66	-0,067840	
21,637000	0,66	-0,075840	
21,648000	0,66	-0,078440	
21,659000	0,66	-0,073970	
21,670000	0,66	-0,078910	
21,681000	0,66	-0,079530	
21,692000	0,66	-0,072430	
21,703000	0,66	-0,063820	
21,714000	0,66	-0,064230	
21,725000	0,66	-0,061300	
21,736000	0,66	-0,053000	
21,747000	0,66	-0,048400	
21,758000	0,66	-0,049590	
21,769000	0,66	-0,056080	
21,780000	0,66	-0,053890	
21,791000	0,66	-0,060140	
21,802000	0,66	-0,065280	
21,813000	0,66	-0,067790	
21,824000	0,66	-0,065360	
21,835000	0,66	-0,057200	
21,846000	0,66	-0,057450	
21,857000	0,66	-0,052090	
21,868000	0,66	-0,049390	
21,879000	0,66	-0,046760	
21,890000	0,66	-0,047950	
21,901000	0,66	-0,052370	
21,912000	0,66	-0,068900	
21,923000	0,66	-0,076250	
21,934000	0,66	-0,073190	
21,945000	0,66	-0,072230	
21,956000	0,66	-0,072780	
21,967000	0,66	-0,065250	
21,978000	0,66	-0,051740	
21,989000	0,66	-0,054910	
22,000000	0,66	-0,068490	
22,011000	0,66	-0,075620	
22,022000	0,66	-0,075500	
22,033000	0,66	-0,061530	
22,044000	0,66	-0,045890	
22,055000	0,66	-0,050720	
22,066000	0,66	-0,064040	
22,077000	0,66	-0,071230	
22,088000	0,66	-0,075860	
22,099000	0,66	-0,073230	
22,110000	0,66	-0,069940	
22,121000	0,66	-0,076410	
22,132000	0,66	-0,080140	
22,143000	0,66	-0,079360	
22,154000	0,66	-0,064310	
22,165000	0,66	-0,054320	
22,176000	0,66	-0,066820	
22,187000	0,66	-0,068030	
22,198000	0,66	-0,077960	
22,209000	0,66	-0,072290	
22,220000	0,66	-0,071640	
22,231000	0,66	-0,074270	
22,242000	0,66	-0,079520	
22,253000	0,66	-0,076770	
22,264000	0,66	-0,069790	
22,275000	0,66	-0,069170	
22,286000	0,66	-0,066570	
22,297000	0,66	-0,077950	
22,308000	0,66	-0,078440	
22,319000	0,66	-0,073250	
22,330000	0,66	-0,067360	
22,341000	0,66	-0,074630	
22,352000	0,66	-0,067340	
22,363000	0,66	-0,063420	
22,374000	0,66	-0,063940	
22,385000	0,66	-0,054680	
22,396000	0,66	-0,048330	
22,407000	0,66	-0,051200	
22,418000	0,66	-0,050040	
22,429000	0,66	-0,056410	
22,440000	0,66	-0,052990	
22,451000	0,66	-0,052940	
22,462000	0,66	-0,052290	
22,473000	0,66	-0,058340	
22,484000	0,66	-0,055300	
22,495000	0,66	-0,055200	
22,506000	0,66	-0,060940	
22,517000	0,66	-0,061980	
22,528000	0,66	-0,065370	
22,539000	0,66	-0,071180	
22,550000	0,66	-0,064350	
22,561000	0,66	-0,055670	
22,572000	0,66	-0,056900	
22,583000	0,66	-0,062040	
22,594000	0,66	-0,068010	
22,605000	0,66	-0,063750	
22,616000	0,66	-0,063360	
22,627000	0,66	-0,063740	
22,638000	0,66	-0,060100	
22,649000	0,66	-0,052680	
22,660000	0,66	-0,049250	
22,671000	0,66	-0,057610	
22,682000	0,66	-0,060850	
22,693000	0,66	-0,056570	
22,704000	0,66	-0,052240	
22,715000	0,66	-0,045300	
22,726000	0,66	-0,032670	
22,737000	0,66	-0,009940	
22,748000	0,66	0,006930	
22,759000	0,66	0,013840	
22,770000	0,66	0,030870	
22,781000	0,66	0,059130	
22,792000	0,66	0,087550	
22,803000	0,66	0,089300	
22,814000	0,66	0,095100	
22,825000	0,66	0,094510	
22,836000	0,66	0,083320	
22,847000	0,66	0,079410	
22,858000	0,66	0,060290	
22,869000	0,66	0,047890	
22,880000	0,66	0,043900	
22,891000	0,66	0,028530	
22,902000	0,66	0,008440	
22,913000	0,66	-0,010490	
22,924000	0,66	-0,019270	
22,935000	0,66	-0,028030	
22,946000	0,66	-0,035290	
22,957000	0,66	-0,042130	
22,968000	0,66	-0,039890	
22,979000	0,66	-0,050360	
22,990000	0,66	-0,051230	
23,001000	0,66	-0,053160	
23,012000	0,66	-0,052670	
23,023000	0,66	-0,048500	
23,034000	0,66	-0,056190	
23,045000	0,66	-0,058050	
23,056000	0,66	-0,047310	
23,067000	0,66	-0,046440	
23,078000	0,66	-0,062650	
23,089000	0,66	-0,066820	
23,100000	0,66	-0,071590	
23,111000	0,66	-0,078400	
23,122000	0,66	-0,082560	
23,133000	0,66	-0,075190	
23,144000	0,66	-0,077710	
23,155000	0,66	-0,077610	
23,166000	0,66	-0,071730	
23,177000	0,66	-0,069270	
23,188000	0,66	-0,068000	
23,199000	0,66	-0,062230	
23,210000	0,66	-0,062160	
23,221000	0,66	-0,069920	
23,232000	0,66	-0,078360	
23,243000	0,66	-0,084100	
23,254000	0,66	-0,070260	
23,265000	0,66	-0,071490	
23,276000	0,66	-0,074700	
23,287000	0,66	-0,079820	
23,298000	0,66	-0,071440	
23,309000	0,66	-0,059460	
23,320000	0,66	-0,059650	
23,331000	0,66	-0,061610	
23,342000	0,66	-0,060850	
23,353000	0,66	-0,060680	
23,364000	0,66	-0,058060	
23,375000	0,66	-0,056010	
23,386000	0,66	-0,051030	
23,397000	0,66	-0,048010	
23,408000	0,66	-0,053880	
23,419000	0,66	-0,055020	
23,430000	0,66	-0,055670	
23,441000	0,66	-0,053110	
23,452000	0,66	-0,052510	
23,463000	0,66	-0,060460	
23,474000	0,66	-0,055050	
23,485000	0,66	-0,045330	
23,496000	0,66	-0,045870	
23,507000	0,66	-0,057080	
23,518000	0,66	-0,059050	
23,529000	0,66	-0,067650	
23,540000	0,66	-0,065580	
23,551000	0,66	-0,060360	
23,562000	0,66	-0,058560	
23,573000	0,66	-0,047800	
23,584000	0,66	-0,037250	
23,595000	0,66	-0,031500	
23,606000	0,66	-0,045060	
23,617000	0,66	-0,054340	
23,628000	0,66	-0,058670	
23,639000	0,66	-0,060480	
23,650000	0,66	-0,076560	
23,661000	0,66	-0,075090	
23,672000	0,66	-0,066140	
23,683000	0,66	-0,054140	
23,694000	0,66	-0,047150	
23,705000	0,66	-0,040430	
23,716000	0,66	-0,029760	
23,727000	0,66	-0,034330	
23,738000	0,66	-0,029200	
23,749000	0,66	-0,030610	
23,760000	0,66	-0,026900	
23,771000	0,66	-0,027830	
23,782000	0,66	-0,025570	
23,793000	0,66	-0,005640	
23,804000	0,66	0,015990	
23,815000	0,66	0,029800	
23,826000	0,66	0,041230	
23,837000	0,66	0,047330	
23,848000	0,66	0,051720	
23,859000	0,66	0,068250	
23,870000	0,66	0,094890	
23,881000	0,66	0,128230	
23,892000	0,66	0,152520	
23,903000	0,66	0,192820	
23,914000	0,66	0,227380	
23,925000	0,66	0,242040	
23,936000	0,66	0,255290	
23,947000	0,66	0,253250	
23,958000	0,66	0,238110	
23,969000	0,66	0,232820	
23,980000	0,66	0,234810	
23,991000	0,66	0,234480	
24,002000	0,66	0,220330	
24,013000	0,66	0,214800	
24,024000	0,66	0,221390	
24,035000	0,66	0,219830	
24,046000	0,66	0,222540	
24,057000	0,66	0,257520	
24,068000	0,66	0,338200	
24,079000	0,66	0,507070	
24,090000	0,66	0,831580	
24,101000	0,66	1,396100	
24,112000	0,66	2,332930	
24,123000	0,66	3,888200	
24,134000	0,66	6,318560	
24,145000	0,66	9,602980	
24,156000	0,66	13,223000	
24,167000	0,66	16,660380	
24,178000	0,66	19,518230	
24,189000	0,66	21,661960	
24,200000	0,66	23,081350	
24,211000	0,66	23,863020	
24,222000	0,66	24,128230	
24,233000	0,66	23,987250	
24,244000	0,66	23,534320	
24,255000	0,66	22,814980	
24,266000	0,66	21,938930	
24,277000	0,66	20,954410	
24,288000	0,66	19,873090	
24,299000	0,66	18,728320	
24,310000	0,66	17,556660	
24,321000	0,66	16,382950	
24,332000	0,66	15,210690	
24,343000	0,66	14,044870	
24,354000	0,66	12,896490	
24,365000	0,66	11,793970	
24,376000	0,66	10,740130	
24,387000	0,66	9,747650	
24,398000	0,66	8,797960	
24,409000	0,66	7,907930	
24,420000	0,66	7,099610	
24,431000	0,66	6,378140	
24,442000	0,66	5,719750	
24,453000	0,66	5,134220	
24,464000	0,66	4,620830	
24,475000	0,66	4,159580	
24,486000	0,66	3,758970	
24,497000	0,66	3,397790	
24,508000	0,66	3,059560	
24,519000	0,66	2,760010	
24,530000	0,66	2,487780	
24,541000	0,66	2,233970	
24,552000	0,66	1,998130	
24,563000	0,66	1,781130	
24,574000	0,66	1,573710	
24,585000	0,66	1,386990	
24,596000	0,66	1,229700	
24,607000	0,66	1,083410	
24,618000	0,66	0,953210	
24,629000	0,66	0,833300	
24,640000	0,66	0,736480	
24,651000	0,66	0,657640	
24,662000	0,66	0,585260	
24,673000	0,66	0,519590	
24,684000	0,66	0,452630	
24,695000	0,66	0,398840	
24,706000	0,66	0,359940	
24,717000	0,66	0,328250	
24,728000	0,66	0,291100	
24,739000	0,66	0,259520	
24,750000	0,66	0,240170	
24,761000	0,66	0,220540	
24,772000	0,66	0,195410	
24,783000	0,66	0,172950	
24,794000	0,66	0,154110	
24,805000	0,66	0,132440	
24,816000	0,66	0,122640	
24,827000	0,66	0,120120	
24,838000	0,66	0,114450	
24,849000	0,66	0,111840	
24,860000	0,66	0,103460	
24,871000	0,66	0,095070	
24,882000	0,66	0,088450	
24,893000	0,66	0,069890	
24,904000	0,66	0,064980	
24,915000	0,66	0,052870	
24,926000	0,66	0,045820	
24,937000	0,66	0,043250	
24,948000	0,66	0,037280	
24,959000	0,66	0,033360	
24,970000	0,66	0,036100	
24,981000	0,66	0,030260	
24,992000	0,66	0,026810	
25,003000	0,66	0,021340	
25,014000	0,66	0,016550	
25,025000	0,66	-0,001650	
25,036000	0,66	-0,002730	
25,047000	0,66	0,001270	
25,058000	0,66	-0,004130	
25,069000	0,66	0,003970	
25,080000	0,66	0,005620	
25,091000	0,66	0,004590	
25,102000	0,66	0,003800	
25,113000	0,66	-0,004570	
25,124000	0,66	-0,004300	
25,135000	0,66	-0,008190	
25,146000	0,66	-0,020370	
25,157000	0,66	-0,011670	
25,168000	0,66	-0,009410	
25,179000	0,66	-0,007670	
25,190000	0,66	-0,020230	
25,201000	0,66	-0,018850	
25,212000	0,66	-0,013440	
25,223000	0,66	-0,004300	
25,234000	0,66	-0,014540	
25,245000	0,66	-0,007250	
25,256000	0,66	-0,003640	
25,267000	0,66	0,005630	
25,278000	0,66	0,022070	
25,289000	0,66	0,039470	
25,300000	0,66	0,055270	
25,311000	0,66	0,069420	
25,322000	0,66	0,073970	
25,333000	0,66	0,060000	
25,344000	0,66	0,041790	
25,355000	0,66	0,033830	
25,366000	0,66	0,031470	
25,377000	0,66	0,026220	
25,388000	0,66	0,013230	
25,399000	0,66	0,005090	
25,410000	0,66	-0,001130	
25,421000	0,66	-0,008750	
25,432000	0,66	-0,015280	
25,443000	0,66	-0,015010	
25,454000	0,66	-0,018950	
25,465000	0,66	-0,033280	
25,476000	0,66	-0,049900	
25,487000	0,66	-0,053820	
25,498000	0,66	-0,042570	
25,509000	0,66	-0,040200	
25,520000	0,66	-0,037640	
25,531000	0,66	-0,031650	
25,542000	0,66	-0,036650	
25,553000	0,66	-0,048220	
25,564000	0,66	-0,064590	
25,575000	0,66	-0,073310	
25,586000	0,66	-0,070200	
25,597000	0,66	-0,067390	
25,608000	0,66	-0,058920	
25,619000	0,66	-0,054470	
25,630000	0,66	-0,052850	
25,641000	0,66	-0,054320	
25,652000	0,66	-0,051380	
25,663000	0,66	-0,050750	
25,674000	0,66	-0,029340	
25,685000	0,66	-0,023450	
25,696000	0,66	-0,014510	
25,707000	0,66	-0,019710	
25,718000	0,66	-0,019780	
25,729000	0,66	-0,024340	
25,740000	0,66	-0,023250	
25,751000	0,66	-0,016690	
25,762000	0,66	-0,008950	
25,773000	0,66	-0,016370	
25,784000	0,66	-0,022520	
25,795000	0,66	-0,043180	
25,806000	0,66	-0,051950	
25,817000	0,66	-0,069870	
25,828000	0,66	-0,065760	
25,839000	0,66	-0,046110	
25,850000	0,66	-0,043220	
25,861000	0,66	-0,052880	
25,872000	0,66	-0,048720	
25,883000	0,66	-0,053360	
25,894000	0,66	-0,056860	
25,905000	0,66	-0,065350	
25,916000	0,66	-0,074150	
25,927000	0,66	-0,078440	
25,938000	0,66	-0,080470	
25,949000	0,66	-0,087230	
25,960000	0,66	-0,079810	
25,971000	0,66	-0,094450	
25,982000	0,66	-0,086750	
25,993000	0,66	-0,079220	
26,004000	0,66	-0,076910	
26,015000	0,66	-0,069910	
26,026000	0,66	-0,070420	
26,037000	0,66	-0,072380	
26,048000	0,66	-0,078290	
26,059000	0,66	-0,091600	
26,070000	0,66	-0,097570	
26,081000	0,66	-0,078230	
26,092000	0,66	-0,062120	
26,103000	0,66	-0,063010	
26,114000	0,66	-0,071170	
26,125000	0,66	-0,078830	
26,136000	0,66	-0,078280	
26,147000	0,66	-0,073910	
26,158000	0,66	-0,064400	
26,169000	0,66	-0,061350	
26,180000	0,66	-0,065400	
26,191000	0,66	-0,065430	
26,202000	0,66	-0,076440	
26,213000	0,66	-0,087030	
26,224000	0,66	-0,082020	
26,235000	0,66	-0,074860	
26,246000	0,66	-0,065870	
26,257000	0,66	-0,064270	
26,268000	0,66	-0,072050	
26,279000	0,66	-0,067870	
26,290000	0,66	-0,063140	
26,301000	0,66	-0,061400	
26,312000	0,66	-0,052340	
26,323000	0,66	-0,055980	
26,334000	0,66	-0,058590	
26,345000	0,66	-0,060120	
26,356000	0,66	-0,066430	
26,367000	0,66	-0,079140	
26,378000	0,66	-0,090810	
26,389000	0,66	-0,088170	
26,400000	0,66	-0,082260	
26,411000	0,66	-0,070210	
26,422000	0,66	-0,078040	
26,433000	0,66	-0,076260	
26,444000	0,66	-0,074410	
26,455000	0,66	-0,075190	
26,466000	0,66	-0,076080	
26,477000	0,66	-0,068710	
26,488000	0,66	-0,067970	
26,499000	0,66	-0,070250	
26,510000	0,66	-0,060780	
26,521000	0,66	-0,074530	
26,532000	0,66	-0,090260	
26,543000	0,66	-0,092390	
26,554000	0,66	-0,090740	
26,565000	0,66	-0,072630	
26,576000	0,66	-0,066960	
26,587000	0,66	-0,073920	
26,598000	0,66	-0,073040	
26,609000	0,66	-0,071840	
26,620000	0,66	-0,080260	
26,631000	0,66	-0,079550	
26,642000	0,66	-0,078010	
26,653000	0,66	-0,078420	
26,664000	0,66	-0,083310	
26,675000	0,66	-0,085600	
26,686000	0,66	-0,086610	
26,697000	0,66	-0,088030	
26,708000	0,66	-0,082860	
26,719000	0,66	-0,076910	
26,730000	0,66	-0,074760	
26,741000	0,66	-0,069180	
26,752000	0,66	-0,065290	
26,763000	0,66	-0,066050	
26,774000	0,66	-0,072010	
26,785000	0,66	-0,082600	
26,796000	0,66	-0,089390	
26,807000	0,66	-0,092310	
26,818000	0,66	-0,097530	
26,829000	0,66	-0,099840	
26,840000	0,66	-0,095970	
26,851000	0,66	-0,093910	
26,862000	0,66	-0,098160	
26,873000	0,66	-0,089860	
26,884000	0,66	-0,076420	
26,895000	0,66	-0,088260	
26,906000	0,66	-0,096190	
26,917000	0,66	-0,083200	
26,928000	0,66	-0,079550	
26,939000	0,66	-0,083520	
26,950000	0,66	-0,087400	
26,961000	0,66	-0,093940	
26,972000	0,66	-0,088090	
26,983000	0,66	-0,088940	
26,994000	0,66	-0,086620	
27,005000	0,66	-0,082810	
27,016000	0,66	-0,086200	
27,027000	0,66	-0,097440	
27,038000	0,66	-0,095070	
27,049000	0,66	-0,100220	
27,060000	0,66	-0,109380	
27,071000	0,66	-0,101690	
27,082000	0,66	-0,102060	
27,093000	0,66	-0,091670	
27,104000	0,66	-0,098190	
27,115000	0,66	-0,095390	
27,126000	0,66	-0,090420	
27,137000	0,66	-0,077290	
27,148000	0,66	-0,080790	
27,159000	0,66	-0,075060	
27,170000	0,66	-0,079810	
27,181000	0,66	-0,083760	
27,192000	0,66	-0,073400	
27,203000	0,66	-0,074590	
27,214000	0,66	-0,072730	
27,225000	0,66	-0,084040	
27,236000	0,66	-0,086710	
27,247000	0,66	-0,079900	
27,258000	0,66	-0,082450	
27,269000	0,66	-0,082600	
27,280000	0,66	-0,081250	
27,291000	0,66	-0,088250	
27,302000	0,66	-0,095420	
27,313000	0,66	-0,085560	
27,324000	0,66	-0,088970	
27,335000	0,66	-0,092370	
27,346000	0,66	-0,093220	
27,357000	0,66	-0,099150	
27,368000	0,66	-0,103310	
27,379000	0,66	-0,093520	
27,390000	0,66	-0,082120	
27,401000	0,66	-0,085220	
27,412000	0,66	-0,094100	
27,423000	0,66	-0,095240	
27,434000	0,66	-0,088370	
27,445000	0,66	-0,087060	
27,456000	0,66	-0,088310	
27,467000	0,66	-0,088630	
27,478000	0,66	-0,098660	
27,489000	0,66	-0,100110	
27,500000	0,66	-0,090620	
27,511000	0,66	-0,088690	
27,522000	0,66	-0,092860	
27,533000	0,66	-0,093880	
27,544000	0,66	-0,098740	
27,555000	0,66	-0,098240	
27,566000	0,66	-0,091140	
27,577000	0,66	-0,087610	
27,588000	0,66	-0,092460	
27,599000	0,66	-0,105870	
27,610000	0,66	-0,110510	
27,621000	0,66	-0,111490	
27,632000	0,66	-0,115420	
27,643000	0,66	-0,115090	
27,654000	0,66	-0,110600	
27,665000	0,66	-0,107800	
27,676000	0,66	-0,107650	
27,687000	0,66	-0,105620	
27,698000	0,66	-0,106330	
27,709000	0,66	-0,105250	
27,720000	0,66	-0,104450	
27,731000	0,66	-0,088630	
27,742000	0,66	-0,088270	
27,753000	0,66	-0,092700	
27,764000	0,66	-0,103390	
27,775000	0,66	-0,110750	
27,786000	0,66	-0,106490	
27,797000	0,66	-0,112720	
27,808000	0,66	-0,102700	
27,819000	0,66	-0,087980	
27,830000	0,66	-0,088610	
27,841000	0,66	-0,091540	
27,852000	0,66	-0,092390	
27,863000	0,66	-0,096720	
27,874000	0,66	-0,095110	
27,885000	0,66	-0,100060	
27,896000	0,66	-0,095690	
27,907000	0,66	-0,091630	
27,918000	0,66	-0,088850	
27,929000	0,66	-0,084960	
27,940000	0,66	-0,091570	
27,951000	0,66	-0,090810	
27,962000	0,66	-0,083050	
27,973000	0,66	-0,081410	
27,984000	0,66	-0,091830	
27,995000	0,66	-0,096610	
28,006000	0,66	-0,096260	
28,017000	0,66	-0,097430	
28,028000	0,66	-0,091970	
28,039000	0,66	-0,097970	
28,050000	0,66	-0,096160	
28,061000	0,66	-0,095460	
28,072000	0,66	-0,095490	
28,083000	0,66	-0,080480	
28,094000	0,66	-0,084590	
28,105000	0,66	-0,092730	
28,116000	0,66	-0,102030	
28,127000	0,66	-0,103360	
28,138000	0,66	-0,101850	
28,149000	0,66	-0,100700	
28,160000	0,66	-0,102570	
28,171000	0,66	-0,096050	
28,182000	0,66	-0,092360	
28,193000	0,66	-0,088740	
28,204000	0,66	-0,101740	
28,215000	0,66	-0,103070	
28,226000	0,66	-0,090980	
28,237000	0,66	-0,089010	
28,248000	0,66	-0,096680	
28,259000	0,66	-0,105620	
28,270000	0,66	-0,113030	
28,281000	0,66	-0,117130	
28,292000	0,66	-0,116000	
28,303000	0,66	-0,112840	
28,314000	0,66	-0,101710	
28,325000	0,66	-0,105650	
28,336000	0,66	-0,106910	
28,347000	0,66	-0,098630	
28,358000	0,66	-0,101580	
28,369000	0,66	-0,104230	
28,380000	0,66	-0,096540	
28,391000	0,66	-0,085880	
28,402000	0,66	-0,078800	
28,413000	0,66	-0,084720	
28,424000	0,66	-0,096790	
28,435000	0,66	-0,090940	
28,446000	0,66	-0,086500	
28,457000	0,66	-0,094390	
28,468000	0,66	-0,080140	
28,479000	0,66	-0,073460	
28,490000	0,66	-0,063180	
28,501000	0,66	-0,056730	
28,512000	0,66	-0,070910	
28,523000	0,66	-0,063310	
28,534000	0,66	-0,053550	
28,545000	0,66	-0,043750	
28,556000	0,66	-0,035840	
28,567000	0,66	-0,025730	
28,578000	0,66	-0,042360	
28,589000	0,66	-0,044740	
28,600000	0,66	-0,051760	
28,611000	0,66	-0,061930	
28,622000	0,66	-0,059030	
28,633000	0,66	-0,067610	
28,644000	0,66	-0,072330	
28,655000	0,66	-0,070430	
28,666000	0,66	-0,080160	
28,677000	0,66	-0,070250	
28,688000	0,66	-0,061500	
28,699000	0,66	-0,055900	
28,710000	0,66	-0,054780	
28,721000	0,66	-0,055540	
28,732000	0,66	-0,065580	
28,743000	0,66	-0,066220	
28,754000	0,66	-0,054840	
28,765000	0,66	-0,061090	
28,776000	0,66	-0,059550	
28,787000	0,66	-0,053170	
28,798000	0,66	-0,054920	
28,809000	0,66	-0,046630	
28,820000	0,66	-0,040580	
28,831000	0,66	-0,053800	
28,842000	0,66	-0,050090	
28,853000	0,66	-0,055810	
28,864000	0,66	-0,061670	
28,875000	0,66	-0,060060	
28,886000	0,66	-0,072020	
28,897000	0,66	-0,086320	
28,908000	0,66	-0,085400	
28,919000	0,66	-0,086850	
28,930000	0,66	-0,081000	
28,941000	0,66	-0,080140	
28,952000	0,66	-0,094260	
28,963000	0,66	-0,108470	
28,974000	0,66	-0,110020	
28,985000	0,66	-0,103470	
28,996000	0,66	-0,101570	
29,007000	0,66	-0,092870	
29,018000	0,66	-0,096250	
29,029000	0,66	-0,110930	
29,040000	0,66	-0,113600	
29,051000	0,66	-0,116230	
29,062000	0,66	-0,117590	
29,073000	0,66	-0,110730	
29,084000	0,66	-0,109070	
29,095000	0,66	-0,103540	
29,106000	0,66	-0,100900	
29,117000	0,66	-0,104970	
29,128000	0,66	-0,114260	
29,139000	0,66	-0,114480	
29,150000	0,66	-0,122360	
29,161000	0,66	-0,130570	
29,172000	0,66	-0,129110	
29,183000	0,66	-0,127640	
29,194000	0,66	-0,117900	
29,205000	0,66	-0,113630	
29,216000	0,66	-0,117480	
29,227000	0,66	-0,110320	
29,238000	0,66	-0,105810	
29,249000	0,66	-0,102640	
29,260000	0,66	-0,093760	
29,271000	0,66	-0,092180	
29,282000	0,66	-0,088580	
29,293000	0,66	-0,087060	
29,304000	0,66	-0,096380	
29,315000	0,66	-0,092880	
29,326000	0,66	-0,087050	
29,337000	0,66	-0,094350	
29,348000	0,66	-0,103660	
29,359000	0,66	-0,094580	
29,370000	0,66	-0,085940	
29,381000	0,66	-0,072260	
29,392000	0,66	-0,063770	
29,403000	0,66	-0,062670	
29,414000	0,66	-0,079170	
29,425000	0,66	-0,092860	
29,436000	0,66	-0,094130	
29,447000	0,66	-0,096510	
29,458000	0,66	-0,101180	
29,469000	0,66	-0,099440	
29,480000	0,66	-0,099260	
29,491000	0,66	-0,105800	
29,502000	0,66	-0,118650	
29,513000	0,66	-0,118630	
29,524000	0,66	-0,122000	
29,535000	0,66	-0,122870	
29,546000	0,66	-0,125900	
29,557000	0,66	-0,124810	
29,568000	0,66	-0,128890	
29,579000	0,66	-0,133780	
29,590000	0,66	-0,139900	
29,601000	0,66	-0,144140	
29,612000	0,66	-0,148180	
29,623000	0,66	-0,147140	
29,634000	0,66	-0,142780	
29,645000	0,66	-0,137820	
29,656000	0,66	-0,131450	
29,667000	0,66	-0,127440	
29,678000	0,66	-0,129490	
29,689000	0,66	-0,125550	
29,700000	0,66	-0,120730	
29,711000	0,66	-0,132690	
29,722000	0,66	-0,130010	
29,733000	0,66	-0,126420	
29,744000	0,66	-0,124670	
29,755000	0,66	-0,123680	
29,766000	0,66	-0,124730	
29,777000	0,66	-0,123030	
29,788000	0,66	-0,117820	
29,799000	0,66	-0,117530	
29,810000	0,66	-0,117890	
29,821000	0,66	-0,116430	
29,832000	0,66	-0,122200	
29,843000	0,66	-0,134840	
29,854000	0,66	-0,135980	
29,865000	0,66	-0,132490	
29,876000	0,66	-0,127910	
29,887000	0,66	-0,127860	
29,898000	0,66	-0,117550	
29,909000	0,66	-0,111380	
29,920000	0,66	-0,117800	
29,931000	0,66	-0,118070	
29,942000	0,66	-0,111650	
29,953000	0,66	-0,110100	
29,964000	0,66	-0,112860	
29,975000	0,66	-0,121940	
29,986000	0,66	-0,117170	
29,997000	0,66	-0,115470	
30,008000	0,66	-0,115810	
30,019000	0,66	-0,123370	
30,030000	0,66	-0,128320	
30,041000	0,66	-0,127600	
30,052000	0,66	-0,117900	
30,063000	0,66	-0,121410	
30,074000	0,66	-0,119890	
30,085000	0,66	-0,117350	
30,096000	0,66	-0,122290	
30,107000	0,66	-0,123480	
30,118000	0,66	-0,127300	
30,129000	0,66	-0,107730	
30,140000	0,66	-0,102800	
30,151000	0,66	-0,099580	
30,162000	0,66	-0,109990	
30,173000	0,66	-0,113480	
30,184000	0,66	-0,099370	
30,195000	0,66	-0,092110	
30,206000	0,66	-0,103330	
30,217000	0,66	-0,126900	
30,228000	0,66	-0,130900	
30,239000	0,66	-0,116780	
30,250000	0,66	-0,104390	
30,261000	0,66	-0,097570	
30,272000	0,66	-0,090460	
30,283000	0,66	-0,090490	
30,294000	0,66	-0,100940	
30,305000	0,66	-0,111820	
30,316000	0,66	-0,121560	
30,327000	0,66	-0,124220	
30,338000	0,66	-0,124040	
30,349000	0,66	-0,127080	
30,360000	0,66	-0,128200	
30,371000	0,66	-0,129020	
30,382000	0,66	-0,130410	
30,393000	0,66	-0,130450	
30,404000	0,66	-0,131850	
30,415000	0,66	-0,131300	
30,426000	0,66	-0,131260	
30,437000	0,66	-0,139980	
30,448000	0,66	-0,135540	
30,459000	0,66	-0,124910	
30,470000	0,66	-0,121340	
30,481000	0,66	-0,122030	
30,492000	0,66	-0,116620	
30,503000	0,66	-0,120960	
30,514000	0,66	-0,124200	
30,525000	0,66	-0,120340	
30,536000	0,66	-0,129150	
30,547000	0,66	-0,133500	
30,558000	0,66	-0,127860	
30,569000	0,66	-0,125570	
30,580000	0,66	-0,125860	
30,591000	0,66	-0,126160	
30,602000	0,66	-0,121500	
30,613000	0,66	-0,111810	
30,624000	0,66	-0,117780	
30,635000	0,66	-0,119880	
30,646000	0,66	-0,124210	
30,657000	0,66	-0,124000	
30,668000	0,66	-0,124890	
30,679000	0,66	-0,128750	
30,690000	0,66	-0,130150	
30,701000	0,66	-0,129900	
30,712000	0,66	-0,148750	
30,723000	0,66	-0,149000	
30,734000	0,66	-0,145590	
30,745000	0,66	-0,131340	
30,756000	0,66	-0,129830	
30,767000	0,66	-0,133620	
30,778000	0,66	-0,131340	
30,789000	0,66	-0,134280	
30,800000	0,66	-0,135260	
30,811000	0,66	-0,142690	
30,822000	0,66	-0,147090	
30,833000	0,66	-0,134900	
30,844000	0,66	-0,130640	
30,855000	0,66	-0,127200	
30,866000	0,66	-0,132830	
30,877000	0,66	-0,123670	
30,888000	0,66	-0,114750	
30,899000	0,66	-0,111100	
30,910000	0,66	-0,115670	
30,921000	0,66	-0,134930	
30,932000	0,66	-0,144590	
30,943000	0,66	-0,141790	
30,954000	0,66	-0,147080	
30,965000	0,66	-0,156800	
30,976000	0,66	-0,157610	
30,987000	0,66	-0,156010	
30,998000	0,66	-0,158160	
31,009000	0,66	-0,154190	
31,020000	0,66	-0,150610	
31,031000	0,66	-0,148150	
31,042000	0,66	-0,140290	
31,053000	0,66	-0,140790	
31,064000	0,66	-0,142810	
31,075000	0,66	-0,144560	
31,086000	0,66	-0,153720	
31,097000	0,66	-0,153440	
31,108000	0,66	-0,148340	
31,119000	0,66	-0,145480	
31,130000	0,66	-0,144910	
31,141000	0,66	-0,151010	
31,152000	0,66	-0,151380	
31,163000	0,66	-0,140910	
31,174000	0,66	-0,135660	
31,185000	0,66	-0,125660	
31,196000	0,66	-0,125040	
31,207000	0,66	-0,130290	
31,218000	0,66	-0,129010	
31,229000	0,66	-0,131160	
31,240000	0,66	-0,123590	
31,251000	0,66	-0,121910	
31,262000	0,66	-0,132350	
31,273000	0,66	-0,138610	
31,284000	0,66	-0,142460	
31,295000	0,66	-0,143410	
31,306000	0,66	-0,150150	
31,317000	0,66	-0,145760	
31,328000	0,66	-0,143900	
31,339000	0,66	-0,142500	
31,350000	0,66	-0,148520	
31,361000	0,66	-0,151880	
31,372000	0,66	-0,153600	
31,383000	0,66	-0,143700	
31,394000	0,66	-0,140150	
31,405000	0,66	-0,139130	
31,416000	0,66	-0,145010	
31,427000	0,66	-0,157510	
31,438000	0,66	-0,163170	
31,449000	0,66	-0,158290	
31,460000	0,66	-0,160790	
31,471000	0,66	-0,149730	
31,482000	0,66	-0,148840	
31,493000	0,66	-0,139370	
31,504000	0,66	-0,128330	
31,515000	0,66	-0,140920	
31,526000	0,66	-0,149330	
31,537000	0,66	-0,141400	
31,548000	0,66	-0,150580	
31,559000	0,66	-0,156590	
31,570000	0,66	-0,161570	
31,581000	0,66	-0,152620	
31,592000	0,66	-0,140890	
31,603000	0,66	-0,141420	
31,614000	0,66	-0,139740	
31,625000	0,66	-0,145660	
31,636000	0,66	-0,152510	
31,647000	0,66	-0,139810	
31,658000	0,66	-0,137940	
31,669000	0,66	-0,139480	
31,680000	0,66	-0,139630	
31,691000	0,66	-0,138400	
31,702000	0,66	-0,142000	
31,713000	0,66	-0,144910	
31,724000	0,66	-0,155260	
31,735000	0,66	-0,170990	
31,746000	0,66	-0,170940	
31,757000	0,66	-0,161570	
31,768000	0,66	-0,159560	
31,779000	0,66	-0,165330	
31,790000	0,66	-0,167960	
31,801000	0,66	-0,167890	
31,812000	0,66	-0,157560	
31,823000	0,66	-0,145920	
31,834000	0,66	-0,138610	
31,845000	0,66	-0,140400	
31,856000	0,66	-0,159770	
31,867000	0,66	-0,163580	
31,878000	0,66	-0,160020	
31,889000	0,66	-0,158110	
31,900000	0,66	-0,151850	
31,911000	0,66	-0,148930	
31,922000	0,66	-0,154770	
31,933000	0,66	-0,155400	
31,944000	0,66	-0,149720	
31,955000	0,66	-0,150640	
31,966000	0,66	-0,151710	
31,977000	0,66	-0,155430	
31,988000	0,66	-0,157960	
31,999000	0,66	-0,149780	
32,010000	0,66	-0,143500	
32,021000	0,66	-0,137710	
32,032000	0,66	-0,136150	
32,043000	0,66	-0,145560	
32,054000	0,66	-0,143980	
32,065000	0,66	-0,138820	
32,076000	0,66	-0,145670	
32,087000	0,66	-0,162940	
32,098000	0,66	-0,164690	
32,109000	0,66	-0,169800	
32,120000	0,66	-0,167410	
32,131000	0,66	-0,155220	
32,142000	0,66	-0,146170	
32,153000	0,66	-0,139670	
32,164000	0,66	-0,143850	
32,175000	0,66	-0,154650	
32,186000	0,66	-0,149400	
32,197000	0,66	-0,150160	
32,208000	0,66	-0,153310	
32,219000	0,66	-0,158980	
32,230000	0,66	-0,157640	
32,241000	0,66	-0,150380	
32,252000	0,66	-0,158580	
32,263000	0,66	-0,158680	
32,274000	0,66	-0,138000	
32,285000	0,66	-0,133360	
32,296000	0,66	-0,134210	
32,307000	0,66	-0,144810	
32,318000	0,66	-0,153560	
32,329000	0,66	-0,146380	
32,340000	0,66	-0,146670	
32,351000	0,66	-0,149380	
32,362000	0,66	-0,140520	
32,373000	0,66	-0,131820	
32,384000	0,66	-0,141400	
32,395000	0,66	-0,149690	
32,406000	0,66	-0,141550	
32,417000	0,66	-0,140720	
32,428000	0,66	-0,146830	
32,439000	0,66	-0,154860	
32,450000	0,66	-0,157060	
32,461000	0,66	-0,153220	
32,472000	0,66	-0,155330	
32,483000	0,66	-0,157620	
32,494000	0,66	-0,160890	
32,505000	0,66	-0,158970	
32,516000	0,66	-0,151600	
32,527000	0,66	-0,143390	
32,538000	0,66	-0,135440	
32,549000	0,66	-0,128090	
32,560000	0,66	-0,133290	
32,571000	0,66	-0,140190	
32,582000	0,66	-0,150210	
32,593000	0,66	-0,157870	
32,604000	0,66	-0,162990	
32,615000	0,66	-0,165650	
32,626000	0,66	-0,170820	
32,637000	0,66	-0,173350	
32,648000	0,66	-0,163060	
32,659000	0,66	-0,156510	
32,670000	0,66	-0,140180	
32,681000	0,66	-0,134160	
32,692000	0,66	-0,134970	
32,703000	0,66	-0,145090	
32,714000	0,66	-0,164040	
32,725000	0,66	-0,181240	
32,736000	0,66	-0,177110	
32,747000	0,66	-0,171310	
32,758000	0,66	-0,171280	
32,769000	0,66	-0,163040	
32,780000	0,66	-0,162420	
32,791000	0,66	-0,157500	
32,802000	0,66	-0,152060	
32,813000	0,66	-0,148880	
32,824000	0,66	-0,159930	
32,835000	0,66	-0,162370	
32,846000	0,66	-0,168160	
32,857000	0,66	-0,156340	
32,868000	0,66	-0,155480	
32,879000	0,66	-0,151370	
32,890000	0,66	-0,137350	
32,901000	0,66	-0,140870	
32,912000	0,66	-0,149930	
32,923000	0,66	-0,154390	
32,934000	0,66	-0,156460	
32,945000	0,66	-0,161360	
32,956000	0,66	-0,160090	
32,967000	0,66	-0,156040	
32,978000	0,66	-0,153150	
32,989000	0,66	-0,159330	
33,000000	0,66	-0,161140	
33,011000	0,66	-0,158740	
33,022000	0,66	-0,159540	
33,033000	0,66	-0,165480	
33,044000	0,66	-0,170370	
33,055000	0,66	-0,171650	
33,066000	0,66	-0,159560	
33,077000	0,66	-0,152950	
33,088000	0,66	-0,156190	
33,099000	0,66	-0,158310	
33,110000	0,66	-0,160270	
33,121000	0,66	-0,155570	
33,132000	0,66	-0,151080	
33,143000	0,66	-0,152660	
33,154000	0,66	-0,151720	
33,165000	0,66	-0,147140	
33,176000	0,66	-0,140050	
33,187000	0,66	-0,132820	
33,198000	0,66	-0,139080	
33,209000	0,66	-0,147490	
33,220000	0,66	-0,130450	
33,231000	0,66	-0,131400	
33,242000	0,66	-0,149820	
33,253000	0,66	-0,150510	
33,264000	0,66	-0,143390	
33,275000	0,66	-0,149830	
33,286000	0,66	-0,152160	
33,297000	0,66	-0,151860	
33,308000	0,66	-0,158290	
33,319000	0,66	-0,175370	
33,330000	0,66	-0,175920	
33,341000	0,66	-0,174040	
33,352000	0,66	-0,163220	
33,363000	0,66	-0,161140	
33,374000	0,66	-0,150530	
33,385000	0,66	-0,157820	
33,396000	0,66	-0,161820	
33,407000	0,66	-0,154420	
33,418000	0,66	-0,146780	
33,429000	0,66	-0,144970	
33,440000	0,66	-0,155280	
33,451000	0,66	-0,154820	
33,462000	0,66	-0,158330	
33,473000	0,66	-0,146950	
33,484000	0,66	-0,150820	
33,495000	0,66	-0,159150	
33,506000	0,66	-0,161580	
33,517000	0,66	-0,175280	
33,528000	0,66	-0,187080	
33,539000	0,66	-0,169190	
33,550000	0,66	-0,155570	
33,561000	0,66	-0,162340	
33,572000	0,66	-0,154430	
33,583000	0,66	-0,159410	
33,594000	0,66	-0,170140	
33,605000	0,66	-0,165140	
33,616000	0,66	-0,171560	
33,627000	0,66	-0,160280	
33,638000	0,66	-0,147580	
33,649000	0,66	-0,150510	
33,660000	0,66	-0,167470	
33,671000	0,66	-0,172080	
33,682000	0,66	-0,174640	
33,693000	0,66	-0,168170	
33,704000	0,66	-0,166610	
33,715000	0,66	-0,166880	
33,726000	0,66	-0,165760	
33,737000	0,66	-0,155830	
33,748000	0,66	-0,162170	
33,759000	0,66	-0,170150	
33,770000	0,66	-0,161640	
33,781000	0,66	-0,160050	
33,792000	0,66	-0,166410	
33,803000	0,66	-0,171490	
33,814000	0,66	-0,172220	
33,825000	0,66	-0,181090	
33,836000	0,66	-0,197650	
33,847000	0,66	-0,192750	
33,858000	0,66	-0,172230	
33,869000	0,66	-0,163990	
33,880000	0,66	-0,161740	
33,891000	0,66	-0,154830	
33,902000	0,66	-0,151630	
33,913000	0,66	-0,156500	
33,924000	0,66	-0,165750	
33,935000	0,66	-0,162370	
33,946000	0,66	-0,156480	
33,957000	0,66	-0,165750	
33,968000	0,66	-0,168980	
33,979000	0,66	-0,178940	
33,990000	0,66	-0,178220	
34,001000	0,66	-0,172150	
34,012000	0,66	-0,161050	
34,023000	0,66	-0,162310	
34,034000	0,66	-0,155900	
34,045000	0,66	-0,156130	
34,056000	0,66	-0,158880	
34,067000	0,66	-0,165280	
34,078000	0,66	-0,174270	
34,089000	0,66	-0,176980	
34,100000	0,66	-0,177310	
34,111000	0,66	-0,178480	
34,122000	0,66	-0,173060	
34,133000	0,66	-0,169890	
34,144000	0,66	-0,171050	
34,155000	0,66	-0,178030	
34,166000	0,66	-0,177870	
34,177000	0,66	-0,167120	
34,188000	0,66	-0,173760	
34,199000	0,66	-0,169310	
34,210000	0,66	-0,159610	
34,221000	0,66	-0,155070	
34,232000	0,66	-0,156170	
34,243000	0,66	-0,155680	
34,254000	0,66	-0,165630	
34,265000	0,66	-0,166200	
34,276000	0,66	-0,168460	
34,287000	0,66	-0,159600	
34,298000	0,66	-0,154050	
34,309000	0,66	-0,167750	
34,320000	0,66	-0,182040	
34,331000	0,66	-0,182920	
34,342000	0,66	-0,192150	
34,353000	0,66	-0,191730	
34,364000	0,66	-0,187680	
34,375000	0,66	-0,182760	
34,386000	0,66	-0,182340	
34,397000	0,66	-0,179130	
34,408000	0,66	-0,179170	
34,419000	0,66	-0,180570	
34,430000	0,66	-0,175860	
34,441000	0,66	-0,176840	
34,452000	0,66	-0,177260	
34,463000	0,66	-0,164010	
34,474000	0,66	-0,158160	
34,485000	0,66	-0,159730	
34,496000	0,66	-0,161120	
34,507000	0,66	-0,162790	
34,518000	0,66	-0,165700	
34,529000	0,66	-0,172910	
34,540000	0,66	-0,169580	
34,551000	0,66	-0,167620	
34,562000	0,66	-0,172080	
34,573000	0,66	-0,168570	
34,584000	0,66	-0,175330	
34,595000	0,66	-0,184850	
34,606000	0,66	-0,188680	
34,617000	0,66	-0,185760	
34,628000	0,66	-0,177960	
34,639000	0,66	-0,177420	
34,650000	0,66	-0,185430	
34,661000	0,66	-0,184450	
34,672000	0,66	-0,176830	
34,683000	0,66	-0,175430	
34,694000	0,66	-0,169850	
34,705000	0,66	-0,178000	
34,716000	0,66	-0,177300	
34,727000	0,66	-0,189800	
34,738000	0,66	-0,171630	
34,749000	0,66	-0,160160	
34,760000	0,66	-0,157680	
34,771000	0,66	-0,160010	
34,782000	0,66	-0,163210	
34,793000	0,66	-0,168740	
34,804000	0,66	-0,179670	
34,815000	0,66	-0,168170	
34,826000	0,66	-0,179140	
34,837000	0,66	-0,183940	
34,848000	0,66	-0,183860	
34,859000	0,66	-0,181760	
34,870000	0,66	-0,177360	
34,881000	0,66	-0,182520	
34,892000	0,66	-0,184040	
34,903000	0,66	-0,193030	
34,914000	0,66	-0,200720	
34,925000	0,66	-0,204490	
34,936000	0,66	-0,195380	
34,947000	0,66	-0,191440	
34,958000	0,66	-0,194610	
34,969000	0,66	-0,186680	
34,980000	0,66	-0,188820	
34,991000	0,66	-0,190420	
35,002000	0,66	-0,174970	
35,013000	0,66	-0,168200	
35,024000	0,66	-0,164410	
35,035000	0,66	-0,170300	
35,046000	0,66	-0,176610	
35,057000	0,66	-0,180020	
35,068000	0,66	-0,189990	
35,079000	0,66	-0,189200	
35,090000	0,66	-0,182010	
35,101000	0,66	-0,180580	
35,112000	0,66	-0,184250	
35,123000	0,66	-0,187720	
35,134000	0,66	-0,175910	
35,145000	0,66	-0,174460	
35,156000	0,66	-0,172390	
35,167000	0,66	-0,182870	
35,178000	0,66	-0,184350	
35,189000	0,66	-0,175790	
35,200000	0,66	-0,182870	
35,211000	0,66	-0,190890	
35,222000	0,66	-0,191300	
35,233000	0,66	-0,187400	
35,244000	0,66	-0,183970	
35,255000	0,66	-0,185990	
35,266000	0,66	-0,189060	
35,277000	0,66	-0,189700	
35,288000	0,66	-0,183330	
35,299000	0,66	-0,172780	
35,310000	0,66	-0,175140	
35,321000	0,66	-0,187820	
35,332000	0,66	-0,192360	
35,343000	0,66	-0,186550	
35,354000	0,66	-0,184050	
35,365000	0,66	-0,191750	
35,376000	0,66	-0,194700	
35,387000	0,66	-0,183300	
35,398000	0,66	-0,164780	
35,409000	0,66	-0,170130	
35,420000	0,66	-0,178870	
35,431000	0,66	-0,194170	
35,442000	0,66	-0,202430	
35,453000	0,66	-0,191890	
35,464000	0,66	-0,180940	
35,475000	0,66	-0,181930	
35,486000	0,66	-0,187730	
35,497000	0,66	-0,201620	
35,508000	0,66	-0,203700	
35,519000	0,66	-0,200620	
35,530000	0,66	-0,191040	
35,541000	0,66	-0,182380	
35,552000	0,66	-0,181400	
35,563000	0,66	-0,185790	
35,574000	0,66	-0,174780	
35,585000	0,66	-0,167850	
35,596000	0,66	-0,182970	
35,607000	0,66	-0,184050	
35,618000	0,66	-0,186880	
35,629000	0,66	-0,168520	
35,640000	0,66	-0,182110	
35,651000	0,66	-0,179480	
35,662000	0,66	-0,181890	
35,673000	0,66	-0,184630	
35,684000	0,66	-0,176700	
35,695000	0,66	-0,178010	
35,706000	0,66	-0,185200	
35,717000	0,66	-0,193900	
35,728000	0,66	-0,183860	
35,739000	0,66	-0,179850	
35,750000	0,66	-0,190070	
35,761000	0,66	-0,198410	
35,772000	0,66	-0,199690	
35,783000	0,66	-0,210150	
35,794000	0,66	-0,206690	
35,805000	0,66	-0,194890	
35,816000	0,66	-0,185440	
35,827000	0,66	-0,184670	
35,838000	0,66	-0,188550	
35,849000	0,66	-0,190230	
35,860000	0,66	-0,185600	
35,871000	0,66	-0,186140	
35,882000	0,66	-0,186850	
35,893000	0,66	-0,184020	
35,904000	0,66	-0,179550	
35,915000	0,66	-0,174100	
35,926000	0,66	-0,173990	
35,937000	0,66	-0,179130	
35,948000	0,66	-0,185280	
35,959000	0,66	-0,185300	
35,970000	0,66	-0,176240	
35,981000	0,66	-0,171450	
35,992000	0,66	-0,177640	
36,003000	0,66	-0,178710	
36,014000	0,66	-0,176340	
36,025000	0,66	-0,181250	
36,036000	0,66	-0,184270	
36,047000	0,66	-0,184900	
36,058000	0,66	-0,179490	
36,069000	0,66	-0,182700	
36,080000	0,66	-0,183700	
36,091000	0,66	-0,178490	
36,102000	0,66	-0,173720	
36,113000	0,66	-0,165650	
36,124000	0,66	-0,164220	
36,135000	0,66	-0,174010	
36,146000	0,66	-0,185900	
36,157000	0,66	-0,195590	
36,168000	0,66	-0,190050	
36,179000	0,66	-0,180500	
36,190000	0,66	-0,188950	
36,201000	0,66	-0,187700	
36,212000	0,66	-0,193210	
36,223000	0,66	-0,196580	
36,234000	0,66	-0,202290	
36,245000	0,66	-0,199250	
36,256000	0,66	-0,192170	
36,267000	0,66	-0,189510	
36,278000	0,66	-0,187240	
36,289000	0,66	-0,186720	
36,300000	0,66	-0,185410	
36,311000	0,66	-0,180910	
36,322000	0,66	-0,182200	
36,333000	0,66	-0,183270	
36,344000	0,66	-0,187360	
36,355000	0,66	-0,192950	
36,366000	0,66	-0,185560	
36,377000	0,66	-0,195250	
36,388000	0,66	-0,207690	
36,399000	0,66	-0,202130	
36,410000	0,66	-0,188900	
36,421000	0,66	-0,187480	
36,432000	0,66	-0,194730	
36,443000	0,66	-0,193410	
36,454000	0,66	-0,198570	
36,465000	0,66	-0,196340	
36,476000	0,66	-0,198990	
36,487000	0,66	-0,201870	
36,498000	0,66	-0,195980	
36,509000	0,66	-0,191570	
36,520000	0,66	-0,204890	
36,531000	0,66	-0,211590	
36,542000	0,66	-0,204030	
36,553000	0,66	-0,199440	
36,564000	0,66	-0,194700	
36,575000	0,66	-0,189220	
36,586000	0,66	-0,189180	
36,597000	0,66	-0,198730	
36,608000	0,66	-0,202180	
36,619000	0,66	-0,202100	
36,630000	0,66	-0,206330	
36,641000	0,66	-0,206030	
36,652000	0,66	-0,203100	
36,663000	0,66	-0,204900	
36,674000	0,66	-0,211180	
36,685000	0,66	-0,210500	
36,696000	0,66	-0,213610	
36,707000	0,66	-0,220700	
36,718000	0,66	-0,216780	
36,729000	0,66	-0,214350	
36,740000	0,66	-0,215130	
36,751000	0,66	-0,209770	
36,762000	0,66	-0,205470	
36,773000	0,66	-0,211100	
36,784000	0,66	-0,210860	
36,795000	0,66	-0,217130	
36,806000	0,66	-0,225780	
36,817000	0,66	-0,230610	
36,828000	0,66	-0,226140	
36,839000	0,66	-0,219980	
36,850000	0,66	-0,233690	
36,861000	0,66	-0,246440	
36,872000	0,66	-0,247250	
36,883000	0,66	-0,245230	
36,894000	0,66	-0,250580	
36,905000	0,66	-0,245080	
36,916000	0,66	-0,249690	
36,927000	0,66	-0,254620	
36,938000	0,66	-0,257060	
36,949000	0,66	-0,254080	
36,960000	0,66	-0,247680	
36,971000	0,66	-0,233670	
36,982000	0,66	-0,240710	
36,993000	0,66	-0,240140	
37,004000	0,66	-0,240890	
37,015000	0,66	-0,244760	
37,026000	0,66	-0,249420	
37,037000	0,66	-0,254180	
37,048000	0,66	-0,260940	
37,059000	0,66	-0,273590	
37,070000	0,66	-0,276790	
37,081000	0,66	-0,270590	
37,092000	0,66	-0,261680	
37,103000	0,66	-0,267190	
37,114000	0,66	-0,271410	
37,125000	0,66	-0,271650	
37,136000	0,66	-0,269300	
37,147000	0,66	-0,265300	
37,158000	0,66	-0,279470	
37,169000	0,66	-0,288270	
37,180000	0,66	-0,284090	
37,191000	0,66	-0,277710	
37,202000	0,66	-0,272890	
37,213000	0,66	-0,276680	
37,224000	0,66	-0,283140	
37,235000	0,66	-0,288640	
37,246000	0,66	-0,288750	
37,257000	0,66	-0,290120	
37,268000	0,66	-0,289670	
37,279000	0,66	-0,284540	
37,290000	0,66	-0,292100	
37,301000	0,66	-0,294810	
37,312000	0,66	-0,296480	
37,323000	0,66	-0,305940	
37,334000	0,66	-0,309880	
37,345000	0,66	-0,306940	
37,356000	0,66	-0,302860	
37,367000	0,66	-0,304460	
37,378000	0,66	-0,308880	
37,389000	0,66	-0,313860	
37,400000	0,66	-0,312700	
37,411000	0,66	-0,314490	
37,422000	0,66	-0,322380	
37,433000	0,66	-0,331490	
37,444000	0,66	-0,321250	
37,455000	0,66	-0,307300	
37,466000	0,66	-0,296580	
37,477000	0,66	-0,290810	
37,488000	0,66	-0,280870	
37,499000	0,66	-0,280190	
37,510000	0,66	-0,298090	
37,521000	0,66	-0,306460	
37,532000	0,66	-0,313910	
37,543000	0,66	-0,324860	
37,554000	0,66	-0,333900	
37,565000	0,66	-0,326780	
37,576000	0,66	-0,311330	
37,587000	0,66	-0,301820	
37,598000	0,66	-0,300250	
37,609000	0,66	-0,305070	
37,620000	0,66	-0,310480	
37,631000	0,66	-0,310360	
37,642000	0,66	-0,314290	
37,653000	0,66	-0,310750	
37,664000	0,66	-0,303280	
37,675000	0,66	-0,304550	
37,686000	0,66	-0,302240	
37,697000	0,66	-0,310470	
37,708000	0,66	-0,317930	
37,719000	0,66	-0,332730	
37,730000	0,66	-0,335070	
37,741000	0,66	-0,333600	
37,752000	0,66	-0,332350	
37,763000	0,66	-0,326930	
37,774000	0,66	-0,313400	
37,785000	0,66	-0,306780	
37,796000	0,66	-0,309610	
37,807000	0,66	-0,316880	
37,818000	0,66	-0,314050	
37,829000	0,66	-0,304390	
37,840000	0,66	-0,315820	
37,851000	0,66	-0,316710	
37,862000	0,66	-0,317620	
37,873000	0,66	-0,319180	
37,884000	0,66	-0,318880	
37,895000	0,66	-0,312970	
37,906000	0,66	-0,310710	
37,917000	0,66	-0,305710	
37,928000	0,66	-0,308720	
37,939000	0,66	-0,319350	
37,950000	0,66	-0,327350	
37,961000	0,66	-0,329790	
37,972000	0,66	-0,331880	
37,983000	0,66	-0,333900	
37,994000	0,66	-0,341700	
38,005000	0,66	-0,353060	
38,016000	0,66	-0,354050	
38,027000	0,66	-0,344010	
38,038000	0,66	-0,338920	
38,049000	0,66	-0,343030	
38,060000	0,66	-0,355220	
38,071000	0,66	-0,359880	
38,082000	0,66	-0,342510	
38,093000	0,66	-0,334630	
38,104000	0,66	-0,337880	
38,115000	0,66	-0,347180	
38,126000	0,66	-0,342600	
38,137000	0,66	-0,339730	
38,148000	0,66	-0,343850	
38,159000	0,66	-0,342440	
38,170000	0,66	-0,344130	
38,181000	0,66	-0,340280	
38,192000	0,66	-0,330590	
38,203000	0,66	-0,332430	
38,214000	0,66	-0,333330	
38,225000	0,66	-0,339000	
38,236000	0,66	-0,340670	
38,247000	0,66	-0,327100	
38,258000	0,66	-0,324990	
38,269000	0,66	-0,330890	
38,280000	0,66	-0,338730	
38,291000	0,66	-0,339070	
38,302000	0,66	-0,332640	
38,313000	0,66	-0,333270	
38,324000	0,66	-0,335320	
38,335000	0,66	-0,332380	
38,346000	0,66	-0,331950	
38,357000	0,66	-0,320650	
38,368000	0,66	-0,328170	
38,379000	0,66	-0,327140	
38,390000	0,66	-0,318340	
38,401000	0,66	-0,335540	
38,412000	0,66	-0,335810	
38,423000	0,66	-0,329860	
38,434000	0,66	-0,326830	
38,445000	0,66	-0,322540	
38,456000	0,66	-0,332170	
38,467000	0,66	-0,331090	
38,478000	0,66	-0,341640	
38,489000	0,66	-0,339350	
38,500000	0,66	-0,339170	
38,511000	0,66	-0,347290	
38,522000	0,66	-0,348360	
38,533000	0,66	-0,346980	
38,544000	0,66	-0,341450	
38,555000	0,66	-0,339480	
38,566000	0,66	-0,340330	
38,577000	0,66	-0,341030	
38,588000	0,66	-0,338090	
38,599000	0,66	-0,335460	
38,610000	0,66	-0,329630	
38,621000	0,66	-0,326860	
38,632000	0,66	-0,325760	
38,643000	0,66	-0,336640	
38,654000	0,66	-0,340210	
38,665000	0,66	-0,336260	
38,676000	0,66	-0,338250	
38,687000	0,66	-0,347960	
38,698000	0,66	-0,352200	
38,709000	0,66	-0,339900	
38,720000	0,66	-0,330430	
38,731000	0,66	-0,325840	
38,742000	0,66	-0,320620	
38,753000	0,66	-0,328340	
38,764000	0,66	-0,341050	
38,775000	0,66	-0,343440	
38,786000	0,66	-0,338570	
38,797000	0,66	-0,336060	
38,808000	0,66	-0,337070	
38,819000	0,66	-0,331940	
38,830000	0,66	-0,322850	
38,841000	0,66	-0,338710	
38,852000	0,66	-0,349240	
38,863000	0,66	-0,353290	
38,874000	0,66	-0,347740	
38,885000	0,66	-0,350770	
38,896000	0,66	-0,356730	
38,907000	0,66	-0,349240	
38,918000	0,66	-0,340780	
38,929000	0,66	-0,344480	
38,940000	0,66	-0,343530	
38,951000	0,66	-0,339210	
38,962000	0,66	-0,337750	
38,973000	0,66	-0,330190	
38,984000	0,66	-0,334520	
38,995000	0,66	-0,337670	
39,006000	0,66	-0,340980	
39,017000	0,66	-0,351540	
39,028000	0,66	-0,352450	
39,039000	0,66	-0,343460	
39,050000	0,66	-0,341610	
39,061000	0,66	-0,343530	
39,072000	0,66	-0,355270	
39,083000	0,66	-0,352690	
39,094000	0,66	-0,348290	
39,105000	0,66	-0,342800	
39,116000	0,66	-0,337600	
39,127000	0,66	-0,339660	
39,138000	0,66	-0,349530	
39,149000	0,66	-0,353010	
39,160000	0,66	-0,363700	
39,171000	0,66	-0,367990	
39,182000	0,66	-0,362850	
39,193000	0,66	-0,364100	
39,204000	0,66	-0,357950	
39,215000	0,66	-0,349610	
39,226000	0,66	-0,355090	
39,237000	0,66	-0,355970	
39,248000	0,66	-0,356970	
39,259000	0,66	-0,361250	
39,270000	0,66	-0,359990	
39,281000	0,66	-0,356770	
39,292000	0,66	-0,354200	
39,303000	0,66	-0,351000	
39,314000	0,66	-0,346360	
39,325000	0,66	-0,352400	
39,336000	0,66	-0,359440	
39,347000	0,66	-0,354720	
39,358000	0,66	-0,354180	
39,369000	0,66	-0,356460	
39,380000	0,66	-0,354730	
39,391000	0,66	-0,352860	
39,402000	0,66	-0,350060	
39,413000	0,66	-0,348840	
39,424000	0,66	-0,356800	
39,435000	0,66	-0,362370	
39,446000	0,66	-0,358400	
39,457000	0,66	-0,358050	
39,468000	0,66	-0,361820	
39,479000	0,66	-0,362360	
39,490000	0,66	-0,351830	
39,501000	0,66	-0,343620	
39,512000	0,66	-0,342350	
39,523000	0,66	-0,339230	
39,534000	0,66	-0,341430	
39,545000	0,66	-0,353310	
39,556000	0,66	-0,356870	
39,567000	0,66	-0,366870	
39,578000	0,66	-0,357930	
39,589000	0,66	-0,357250	
39,600000	0,66	-0,343380	
39,611000	0,66	-0,335520	
39,622000	0,66	-0,329660	
39,633000	0,66	-0,321940	
39,644000	0,66	-0,316970	
39,655000	0,66	-0,312780	
39,666000	0,66	-0,324020	
39,677000	0,66	-0,332780	
39,688000	0,66	-0,332510	
39,699000	0,66	-0,341220	
39,710000	0,66	-0,341790	
39,721000	0,66	-0,329950	
39,732000	0,66	-0,338300	
39,743000	0,66	-0,358750	
39,754000	0,66	-0,352950	
39,765000	0,66	-0,350800	
39,776000	0,66	-0,351980	
39,787000	0,66	-0,360780	
39,798000	0,66	-0,354110	
39,809000	0,66	-0,347830	
39,820000	0,66	-0,345490	
39,831000	0,66	-0,350030	
39,842000	0,66	-0,356230	
39,853000	0,66	-0,364500	
39,864000	0,66	-0,359450	
39,875000	0,66	-0,355620	
39,886000	0,66	-0,357190	
39,897000	0,66	-0,352820	
39,908000	0,66	-0,348800	
39,919000	0,66	-0,348120	
39,930000	0,66	-0,350870	
39,941000	0,66	-0,356840	
39,952000	0,66	-0,354060	
39,963000	0,66	-0,345530	
39,974000	0,66	-0,344170	
39,985000	0,66	-0,355270	
39,996000	0,66	-0,351220	
40,007000	0,66	-0,353070	
