Filepath	C:\Chromel\data\Analytik\Walther group\Guido\mechanosense\GCR260.SEQ\UV_VIS_1.CHL\17184.acd
Channel	UV_VIS_1

Sample Information:
Datasource	PC-8NN4M2J_local
Sequence	Analytik\Walther group\Guido\mechanosense\GCR260.SEQ
Sample	200717-12
Sample Number	316
Sample Position	RC2
Sample ID	17184
Comment	260-P5-3
QNT method	default
PGM file	single-component-3 40min 60C 0,4mLmin
Type	unknown
Status	finished
Date	17.07.2020
Time	18:39:25
Injection Volume (µl)	100,00
Dilution Factor	1,000000
Amount	1,000000
Weight	1,000000

Raw Data Header Information:
Time Min. (min)	0,000
Time Max. (min)	40,007
Raw-Time Min. (min)	0,000
Raw-Time Max. (min)	40,007
Data Points	3638
Detector	VWD3000.dll
Preferred Read Mode	Unknown
Write Mode	Unknown
Data System	Chromeleon
Version High	06
Version Low	80
Build No.	3160
File Format Version	11
Generation Type	8
File ID	239054205
File Status	16
GUID	c3382d04-c84b-11ea-b409-00184d71f7da
Signal Factor	0,000010
Signal Dimension	mAU
Signal Unit	Absorbance
Signal Min.	0,003650
Signal Max.	426,041650
Channel Name	UV_VIS_1
Driver Name	VWD-3x00 Detector
Min. Step	66
Max. Step	66
Average Step	66

Signal Parameter Information:
Signal Info	WVL:260 nm
Wavelength	260 nm
	 




















Raw Data:
Time(min)	Step(sec)	Value(mAU)
0,000000	0,00	0,046910	
0,011000	0,66	0,046490	
0,022000	0,66	0,042070	
0,033000	0,66	0,038610	
0,044000	0,66	0,032610	
0,055000	0,66	0,029560	
0,066000	0,66	0,027480	
0,077000	0,66	0,023760	
0,088000	0,66	0,022560	
0,099000	0,66	0,019990	
0,110000	0,66	0,021820	
0,121000	0,66	0,023870	
0,132000	0,66	0,025520	
0,143000	0,66	0,029090	
0,154000	0,66	0,028300	
0,165000	0,66	0,025970	
0,176000	0,66	0,028230	
0,187000	0,66	0,028970	
0,198000	0,66	0,025370	
0,209000	0,66	0,025880	
0,220000	0,66	0,027900	
0,231000	0,66	0,028820	
0,242000	0,66	0,027470	
0,253000	0,66	0,022550	
0,264000	0,66	0,020390	
0,275000	0,66	0,019000	
0,286000	0,66	0,016970	
0,297000	0,66	0,015710	
0,308000	0,66	0,014740	
0,319000	0,66	0,012430	
0,330000	0,66	0,009450	
0,341000	0,66	0,006400	
0,352000	0,66	0,005580	
0,363000	0,66	0,005740	
0,374000	0,66	0,005910	
0,385000	0,66	0,007560	
0,396000	0,66	0,008560	
0,407000	0,66	0,007920	
0,418000	0,66	0,007200	
0,429000	0,66	0,006210	
0,440000	0,66	0,003790	
0,451000	0,66	0,003650	
0,462000	0,66	0,005120	
0,473000	0,66	0,006190	
0,484000	0,66	0,008690	
0,495000	0,66	0,010530	
0,506000	0,66	0,009830	
0,517000	0,66	0,012680	
0,528000	0,66	0,013230	
0,539000	0,66	0,012990	
0,550000	0,66	0,011590	
0,561000	0,66	0,009430	
0,572000	0,66	0,008180	
0,583000	0,66	0,009560	
0,594000	0,66	0,008140	
0,605000	0,66	0,007220	
0,616000	0,66	0,006220	
0,627000	0,66	0,007140	
0,638000	0,66	0,008290	
0,649000	0,66	0,010990	
0,660000	0,66	0,011980	
0,671000	0,66	0,012250	
0,682000	0,66	0,013640	
0,693000	0,66	0,014960	
0,704000	0,66	0,016750	
0,715000	0,66	0,016260	
0,726000	0,66	0,016830	
0,737000	0,66	0,017800	
0,748000	0,66	0,015940	
0,759000	0,66	0,015330	
0,770000	0,66	0,016940	
0,781000	0,66	0,017780	
0,792000	0,66	0,016850	
0,803000	0,66	0,017210	
0,814000	0,66	0,017860	
0,825000	0,66	0,019770	
0,836000	0,66	0,020530	
0,847000	0,66	0,021950	
0,858000	0,66	0,019560	
0,869000	0,66	0,019120	
0,880000	0,66	0,020100	
0,891000	0,66	0,019210	
0,902000	0,66	0,020070	
0,913000	0,66	0,019340	
0,924000	0,66	0,018360	
0,935000	0,66	0,017680	
0,946000	0,66	0,019780	
0,957000	0,66	0,022120	
0,968000	0,66	0,023660	
0,979000	0,66	0,022950	
0,990000	0,66	0,022600	
1,001000	0,66	0,021980	
1,012000	0,66	0,021040	
1,023000	0,66	0,021460	
1,034000	0,66	0,022560	
1,045000	0,66	0,022730	
1,056000	0,66	0,022400	
1,067000	0,66	0,022080	
1,078000	0,66	0,021050	
1,089000	0,66	0,021470	
1,100000	0,66	0,023840	
1,111000	0,66	0,024140	
1,122000	0,66	0,025970	
1,133000	0,66	0,030610	
1,144000	0,66	0,029620	
1,155000	0,66	0,025970	
1,166000	0,66	0,022000	
1,177000	0,66	0,024030	
1,188000	0,66	0,029090	
1,199000	0,66	0,029650	
1,210000	0,66	0,032370	
1,221000	0,66	0,032230	
1,232000	0,66	0,030830	
1,243000	0,66	0,031350	
1,254000	0,66	0,032110	
1,265000	0,66	0,039460	
1,276000	0,66	0,070020	
1,287000	0,66	0,203250	
1,298000	0,66	0,679500	
1,309000	0,66	2,066930	
1,320000	0,66	5,141950	
1,331000	0,66	10,140440	
1,342000	0,66	16,413470	
1,353000	0,66	22,725080	
1,364000	0,66	27,994240	
1,375000	0,66	31,661310	
1,386000	0,66	33,707420	
1,397000	0,66	34,430900	
1,408000	0,66	34,247680	
1,419000	0,66	33,519660	
1,430000	0,66	32,503020	
1,441000	0,66	31,356140	
1,452000	0,66	30,165460	
1,463000	0,66	28,975630	
1,474000	0,66	27,805230	
1,485000	0,66	26,656050	
1,496000	0,66	25,516920	
1,507000	0,66	24,365610	
1,518000	0,66	23,187780	
1,529000	0,66	21,979600	
1,540000	0,66	20,741720	
1,551000	0,66	19,471210	
1,562000	0,66	18,174140	
1,573000	0,66	16,865570	
1,584000	0,66	15,567070	
1,595000	0,66	14,304540	
1,606000	0,66	13,103070	
1,617000	0,66	11,986520	
1,628000	0,66	10,973370	
1,639000	0,66	10,074320	
1,650000	0,66	9,287610	
1,661000	0,66	8,610170	
1,672000	0,66	8,024190	
1,683000	0,66	7,515850	
1,694000	0,66	7,074120	
1,705000	0,66	6,682040	
1,716000	0,66	6,326970	
1,727000	0,66	6,000700	
1,738000	0,66	5,698360	
1,749000	0,66	5,418320	
1,760000	0,66	5,152170	
1,771000	0,66	4,898100	
1,782000	0,66	4,658720	
1,793000	0,66	4,432500	
1,804000	0,66	4,220740	
1,815000	0,66	4,022010	
1,826000	0,66	3,836720	
1,837000	0,66	3,662630	
1,848000	0,66	3,495690	
1,859000	0,66	3,338550	
1,870000	0,66	3,191400	
1,881000	0,66	3,051200	
1,892000	0,66	2,920980	
1,903000	0,66	2,796960	
1,914000	0,66	2,677400	
1,925000	0,66	2,563090	
1,936000	0,66	2,454420	
1,947000	0,66	2,348610	
1,958000	0,66	2,242250	
1,969000	0,66	2,142230	
1,980000	0,66	2,044480	
1,991000	0,66	1,949090	
2,002000	0,66	1,862920	
2,013000	0,66	1,783820	
2,024000	0,66	1,707820	
2,035000	0,66	1,639320	
2,046000	0,66	1,574780	
2,057000	0,66	1,514020	
2,068000	0,66	1,455750	
2,079000	0,66	1,400220	
2,090000	0,66	1,349440	
2,101000	0,66	1,300730	
2,112000	0,66	1,250610	
2,123000	0,66	1,199000	
2,134000	0,66	1,143100	
2,145000	0,66	1,082720	
2,156000	0,66	1,041210	
2,167000	0,66	1,094170	
2,178000	0,66	1,246910	
2,189000	0,66	1,352070	
2,200000	0,66	1,322930	
2,211000	0,66	1,194390	
2,222000	0,66	1,035270	
2,233000	0,66	0,901430	
2,244000	0,66	0,810290	
2,255000	0,66	0,755720	
2,266000	0,66	0,728310	
2,277000	0,66	0,713050	
2,288000	0,66	0,704170	
2,299000	0,66	0,696030	
2,310000	0,66	0,688820	
2,321000	0,66	0,681000	
2,332000	0,66	0,672980	
2,343000	0,66	0,663670	
2,354000	0,66	0,652240	
2,365000	0,66	0,642040	
2,376000	0,66	0,631160	
2,387000	0,66	0,619750	
2,398000	0,66	0,607810	
2,409000	0,66	0,595770	
2,420000	0,66	0,585050	
2,431000	0,66	0,574430	
2,442000	0,66	0,561690	
2,453000	0,66	0,551940	
2,464000	0,66	0,544090	
2,475000	0,66	0,533410	
2,486000	0,66	0,526340	
2,497000	0,66	0,521090	
2,508000	0,66	0,511100	
2,519000	0,66	0,500790	
2,530000	0,66	0,492370	
2,541000	0,66	0,481430	
2,552000	0,66	0,471530	
2,563000	0,66	0,465070	
2,574000	0,66	0,458560	
2,585000	0,66	0,451410	
2,596000	0,66	0,444030	
2,607000	0,66	0,437650	
2,618000	0,66	0,431630	
2,629000	0,66	0,426670	
2,640000	0,66	0,419650	
2,651000	0,66	0,416200	
2,662000	0,66	0,411090	
2,673000	0,66	0,406730	
2,684000	0,66	0,402810	
2,695000	0,66	0,398990	
2,706000	0,66	0,395990	
2,717000	0,66	0,392670	
2,728000	0,66	0,386780	
2,739000	0,66	0,381900	
2,750000	0,66	0,377140	
2,761000	0,66	0,369730	
2,772000	0,66	0,365830	
2,783000	0,66	0,364070	
2,794000	0,66	0,359420	
2,805000	0,66	0,355320	
2,816000	0,66	0,352190	
2,827000	0,66	0,347470	
2,838000	0,66	0,344310	
2,849000	0,66	0,340560	
2,860000	0,66	0,337220	
2,871000	0,66	0,335310	
2,882000	0,66	0,331290	
2,893000	0,66	0,329260	
2,904000	0,66	0,325510	
2,915000	0,66	0,322470	
2,926000	0,66	0,318650	
2,937000	0,66	0,315230	
2,948000	0,66	0,307980	
2,959000	0,66	0,303670	
2,970000	0,66	0,298700	
2,981000	0,66	0,287420	
2,992000	0,66	0,275620	
3,003000	0,66	0,266300	
3,014000	0,66	0,256120	
3,025000	0,66	0,246290	
3,036000	0,66	0,240490	
3,047000	0,66	0,234020	
3,058000	0,66	0,229360	
3,069000	0,66	0,227380	
3,080000	0,66	0,226670	
3,091000	0,66	0,229340	
3,102000	0,66	0,230240	
3,113000	0,66	0,228730	
3,124000	0,66	0,228120	
3,135000	0,66	0,228380	
3,146000	0,66	0,228270	
3,157000	0,66	0,225700	
3,168000	0,66	0,222780	
3,179000	0,66	0,222880	
3,190000	0,66	0,222720	
3,201000	0,66	0,219730	
3,212000	0,66	0,216620	
3,223000	0,66	0,215560	
3,234000	0,66	0,216570	
3,245000	0,66	0,217280	
3,256000	0,66	0,216360	
3,267000	0,66	0,213310	
3,278000	0,66	0,210530	
3,289000	0,66	0,210950	
3,300000	0,66	0,210170	
3,311000	0,66	0,208570	
3,322000	0,66	0,207950	
3,333000	0,66	0,206080	
3,344000	0,66	0,202730	
3,355000	0,66	0,198200	
3,366000	0,66	0,196190	
3,377000	0,66	0,195870	
3,388000	0,66	0,193490	
3,399000	0,66	0,190920	
3,410000	0,66	0,191800	
3,421000	0,66	0,193110	
3,432000	0,66	0,192950	
3,443000	0,66	0,191140	
3,454000	0,66	0,189560	
3,465000	0,66	0,190260	
3,476000	0,66	0,187980	
3,487000	0,66	0,186140	
3,498000	0,66	0,184450	
3,509000	0,66	0,184040	
3,520000	0,66	0,184620	
3,531000	0,66	0,184730	
3,542000	0,66	0,185090	
3,553000	0,66	0,181890	
3,564000	0,66	0,179230	
3,575000	0,66	0,179210	
3,586000	0,66	0,179530	
3,597000	0,66	0,179980	
3,608000	0,66	0,180250	
3,619000	0,66	0,176360	
3,630000	0,66	0,178310	
3,641000	0,66	0,177820	
3,652000	0,66	0,174930	
3,663000	0,66	0,171430	
3,674000	0,66	0,171020	
3,685000	0,66	0,174360	
3,696000	0,66	0,172580	
3,707000	0,66	0,172750	
3,718000	0,66	0,169110	
3,729000	0,66	0,168150	
3,740000	0,66	0,169240	
3,751000	0,66	0,166700	
3,762000	0,66	0,164270	
3,773000	0,66	0,166160	
3,784000	0,66	0,167020	
3,795000	0,66	0,165270	
3,806000	0,66	0,163760	
3,817000	0,66	0,163330	
3,828000	0,66	0,163790	
3,839000	0,66	0,163790	
3,850000	0,66	0,164010	
3,861000	0,66	0,161800	
3,872000	0,66	0,160690	
3,883000	0,66	0,162970	
3,894000	0,66	0,161430	
3,905000	0,66	0,159700	
3,916000	0,66	0,159440	
3,927000	0,66	0,161730	
3,938000	0,66	0,163140	
3,949000	0,66	0,160230	
3,960000	0,66	0,160440	
3,971000	0,66	0,160820	
3,982000	0,66	0,160640	
3,993000	0,66	0,160210	
4,004000	0,66	0,159680	
4,015000	0,66	0,157460	
4,026000	0,66	0,159680	
4,037000	0,66	0,158640	
4,048000	0,66	0,158070	
4,059000	0,66	0,158780	
4,070000	0,66	0,162740	
4,081000	0,66	0,161020	
4,092000	0,66	0,160310	
4,103000	0,66	0,157270	
4,114000	0,66	0,155220	
4,125000	0,66	0,153400	
4,136000	0,66	0,157440	
4,147000	0,66	0,158790	
4,158000	0,66	0,153970	
4,169000	0,66	0,152160	
4,180000	0,66	0,152220	
4,191000	0,66	0,153490	
4,202000	0,66	0,155340	
4,213000	0,66	0,155220	
4,224000	0,66	0,153130	
4,235000	0,66	0,153880	
4,246000	0,66	0,154680	
4,257000	0,66	0,157410	
4,268000	0,66	0,157090	
4,279000	0,66	0,155460	
4,290000	0,66	0,154300	
4,301000	0,66	0,152630	
4,312000	0,66	0,150320	
4,323000	0,66	0,150610	
4,334000	0,66	0,151040	
4,345000	0,66	0,148400	
4,356000	0,66	0,150140	
4,367000	0,66	0,153340	
4,378000	0,66	0,158400	
4,389000	0,66	0,156900	
4,400000	0,66	0,158460	
4,411000	0,66	0,157980	
4,422000	0,66	0,157150	
4,433000	0,66	0,157310	
4,444000	0,66	0,157770	
4,455000	0,66	0,158470	
4,466000	0,66	0,157990	
4,477000	0,66	0,157310	
4,488000	0,66	0,155880	
4,499000	0,66	0,155270	
4,510000	0,66	0,153390	
4,521000	0,66	0,151830	
4,532000	0,66	0,151110	
4,543000	0,66	0,149760	
4,554000	0,66	0,150110	
4,565000	0,66	0,149830	
4,576000	0,66	0,149270	
4,587000	0,66	0,152130	
4,598000	0,66	0,154000	
4,609000	0,66	0,151910	
4,620000	0,66	0,150400	
4,631000	0,66	0,150830	
4,642000	0,66	0,151140	
4,653000	0,66	0,153500	
4,664000	0,66	0,156660	
4,675000	0,66	0,157920	
4,686000	0,66	0,158030	
4,697000	0,66	0,158900	
4,708000	0,66	0,155600	
4,719000	0,66	0,152710	
4,730000	0,66	0,152950	
4,741000	0,66	0,154880	
4,752000	0,66	0,154120	
4,763000	0,66	0,155070	
4,774000	0,66	0,154700	
4,785000	0,66	0,150330	
4,796000	0,66	0,149970	
4,807000	0,66	0,148660	
4,818000	0,66	0,150190	
4,829000	0,66	0,150750	
4,840000	0,66	0,153220	
4,851000	0,66	0,151940	
4,862000	0,66	0,149570	
4,873000	0,66	0,151300	
4,884000	0,66	0,153200	
4,895000	0,66	0,156360	
4,906000	0,66	0,160710	
4,917000	0,66	0,160140	
4,928000	0,66	0,160340	
4,939000	0,66	0,157760	
4,950000	0,66	0,154710	
4,961000	0,66	0,155120	
4,972000	0,66	0,156830	
4,983000	0,66	0,154830	
4,994000	0,66	0,153120	
5,005000	0,66	0,153090	
5,016000	0,66	0,156580	
5,027000	0,66	0,158330	
5,038000	0,66	0,160310	
5,049000	0,66	0,160690	
5,060000	0,66	0,160350	
5,071000	0,66	0,159040	
5,082000	0,66	0,160250	
5,093000	0,66	0,159440	
5,104000	0,66	0,158100	
5,115000	0,66	0,158990	
5,126000	0,66	0,163840	
5,137000	0,66	0,165820	
5,148000	0,66	0,165680	
5,159000	0,66	0,165890	
5,170000	0,66	0,165960	
5,181000	0,66	0,165600	
5,192000	0,66	0,163570	
5,203000	0,66	0,163560	
5,214000	0,66	0,164560	
5,225000	0,66	0,165470	
5,236000	0,66	0,166480	
5,247000	0,66	0,165890	
5,258000	0,66	0,165390	
5,269000	0,66	0,166240	
5,280000	0,66	0,167510	
5,291000	0,66	0,169740	
5,302000	0,66	0,172620	
5,313000	0,66	0,174820	
5,324000	0,66	0,179390	
5,335000	0,66	0,183950	
5,346000	0,66	0,188200	
5,357000	0,66	0,192760	
5,368000	0,66	0,196930	
5,379000	0,66	0,206350	
5,390000	0,66	0,217360	
5,401000	0,66	0,229000	
5,412000	0,66	0,242730	
5,423000	0,66	0,257310	
5,434000	0,66	0,273690	
5,445000	0,66	0,290530	
5,456000	0,66	0,307950	
5,467000	0,66	0,325990	
5,478000	0,66	0,340270	
5,489000	0,66	0,356620	
5,500000	0,66	0,373860	
5,511000	0,66	0,388280	
5,522000	0,66	0,397660	
5,533000	0,66	0,409120	
5,544000	0,66	0,419540	
5,555000	0,66	0,427830	
5,566000	0,66	0,432890	
5,577000	0,66	0,430800	
5,588000	0,66	0,426480	
5,599000	0,66	0,424170	
5,610000	0,66	0,418850	
5,621000	0,66	0,410440	
5,632000	0,66	0,400010	
5,643000	0,66	0,388000	
5,654000	0,66	0,373840	
5,665000	0,66	0,361990	
5,676000	0,66	0,352280	
5,687000	0,66	0,338430	
5,698000	0,66	0,323890	
5,709000	0,66	0,310470	
5,720000	0,66	0,298830	
5,731000	0,66	0,289030	
5,742000	0,66	0,281660	
5,753000	0,66	0,274720	
5,764000	0,66	0,267630	
5,775000	0,66	0,261790	
5,786000	0,66	0,258730	
5,797000	0,66	0,258280	
5,808000	0,66	0,254050	
5,819000	0,66	0,251040	
5,830000	0,66	0,252010	
5,841000	0,66	0,251480	
5,852000	0,66	0,251630	
5,863000	0,66	0,253380	
5,874000	0,66	0,255930	
5,885000	0,66	0,257980	
5,896000	0,66	0,256260	
5,907000	0,66	0,255650	
5,918000	0,66	0,257850	
5,929000	0,66	0,261240	
5,940000	0,66	0,264050	
5,951000	0,66	0,265020	
5,962000	0,66	0,268430	
5,973000	0,66	0,271270	
5,984000	0,66	0,271490	
5,995000	0,66	0,273060	
6,006000	0,66	0,275150	
6,017000	0,66	0,277650	
6,028000	0,66	0,279160	
6,039000	0,66	0,282250	
6,050000	0,66	0,285550	
6,061000	0,66	0,287210	
6,072000	0,66	0,288450	
6,083000	0,66	0,289960	
6,094000	0,66	0,290930	
6,105000	0,66	0,291820	
6,116000	0,66	0,294300	
6,127000	0,66	0,296620	
6,138000	0,66	0,298570	
6,149000	0,66	0,296210	
6,160000	0,66	0,298870	
6,171000	0,66	0,301320	
6,182000	0,66	0,303650	
6,193000	0,66	0,306090	
6,204000	0,66	0,309080	
6,215000	0,66	0,311950	
6,226000	0,66	0,315570	
6,237000	0,66	0,319280	
6,248000	0,66	0,321770	
6,259000	0,66	0,322430	
6,270000	0,66	0,320850	
6,281000	0,66	0,325600	
6,292000	0,66	0,330740	
6,303000	0,66	0,334620	
6,314000	0,66	0,337100	
6,325000	0,66	0,336470	
6,336000	0,66	0,337100	
6,347000	0,66	0,338100	
6,358000	0,66	0,340660	
6,369000	0,66	0,342760	
6,380000	0,66	0,343820	
6,391000	0,66	0,347220	
6,402000	0,66	0,351270	
6,413000	0,66	0,354650	
6,424000	0,66	0,357080	
6,435000	0,66	0,355760	
6,446000	0,66	0,356110	
6,457000	0,66	0,358550	
6,468000	0,66	0,360960	
6,479000	0,66	0,362190	
6,490000	0,66	0,361700	
6,501000	0,66	0,363800	
6,512000	0,66	0,368080	
6,523000	0,66	0,372430	
6,534000	0,66	0,376950	
6,545000	0,66	0,379800	
6,556000	0,66	0,380000	
6,567000	0,66	0,381220	
6,578000	0,66	0,383660	
6,589000	0,66	0,384280	
6,600000	0,66	0,385500	
6,611000	0,66	0,388460	
6,622000	0,66	0,393570	
6,633000	0,66	0,395950	
6,644000	0,66	0,395180	
6,655000	0,66	0,396010	
6,666000	0,66	0,396210	
6,677000	0,66	0,395370	
6,688000	0,66	0,395710	
6,699000	0,66	0,397020	
6,710000	0,66	0,398870	
6,721000	0,66	0,401960	
6,732000	0,66	0,403540	
6,743000	0,66	0,405380	
6,754000	0,66	0,405650	
6,765000	0,66	0,409560	
6,776000	0,66	0,414130	
6,787000	0,66	0,414580	
6,798000	0,66	0,413180	
6,809000	0,66	0,414180	
6,820000	0,66	0,413300	
6,831000	0,66	0,413690	
6,842000	0,66	0,412530	
6,853000	0,66	0,414410	
6,864000	0,66	0,420260	
6,875000	0,66	0,422570	
6,886000	0,66	0,423480	
6,897000	0,66	0,426590	
6,908000	0,66	0,426490	
6,919000	0,66	0,427120	
6,930000	0,66	0,431230	
6,941000	0,66	0,430150	
6,952000	0,66	0,430420	
6,963000	0,66	0,432700	
6,974000	0,66	0,434330	
6,985000	0,66	0,432010	
6,996000	0,66	0,433470	
7,007000	0,66	0,434050	
7,018000	0,66	0,435250	
7,029000	0,66	0,434780	
7,040000	0,66	0,438120	
7,051000	0,66	0,441920	
7,062000	0,66	0,443560	
7,073000	0,66	0,445240	
7,084000	0,66	0,446050	
7,095000	0,66	0,449560	
7,106000	0,66	0,451460	
7,117000	0,66	0,450470	
7,128000	0,66	0,451010	
7,139000	0,66	0,452340	
7,150000	0,66	0,454070	
7,161000	0,66	0,454770	
7,172000	0,66	0,454960	
7,183000	0,66	0,453380	
7,194000	0,66	0,456330	
7,205000	0,66	0,458010	
7,216000	0,66	0,461420	
7,227000	0,66	0,465850	
7,238000	0,66	0,466590	
7,249000	0,66	0,467550	
7,260000	0,66	0,467080	
7,271000	0,66	0,467180	
7,282000	0,66	0,469430	
7,293000	0,66	0,471690	
7,304000	0,66	0,472620	
7,315000	0,66	0,474860	
7,326000	0,66	0,478670	
7,337000	0,66	0,483130	
7,348000	0,66	0,486610	
7,359000	0,66	0,487340	
7,370000	0,66	0,487450	
7,381000	0,66	0,488830	
7,392000	0,66	0,491670	
7,403000	0,66	0,491090	
7,414000	0,66	0,491030	
7,425000	0,66	0,493130	
7,436000	0,66	0,495090	
7,447000	0,66	0,497870	
7,458000	0,66	0,500170	
7,469000	0,66	0,501840	
7,480000	0,66	0,505260	
7,491000	0,66	0,504350	
7,502000	0,66	0,503140	
7,513000	0,66	0,503500	
7,524000	0,66	0,508160	
7,535000	0,66	0,510950	
7,546000	0,66	0,508980	
7,557000	0,66	0,509090	
7,568000	0,66	0,512360	
7,579000	0,66	0,514160	
7,590000	0,66	0,514420	
7,601000	0,66	0,519350	
7,612000	0,66	0,524080	
7,623000	0,66	0,526320	
7,634000	0,66	0,526460	
7,645000	0,66	0,525330	
7,656000	0,66	0,524240	
7,667000	0,66	0,526720	
7,678000	0,66	0,529640	
7,689000	0,66	0,532110	
7,700000	0,66	0,533910	
7,711000	0,66	0,535870	
7,722000	0,66	0,538340	
7,733000	0,66	0,541040	
7,744000	0,66	0,539270	
7,755000	0,66	0,540310	
7,766000	0,66	0,542120	
7,777000	0,66	0,543850	
7,788000	0,66	0,548900	
7,799000	0,66	0,550240	
7,810000	0,66	0,550880	
7,821000	0,66	0,550530	
7,832000	0,66	0,555170	
7,843000	0,66	0,559470	
7,854000	0,66	0,560870	
7,865000	0,66	0,562600	
7,876000	0,66	0,564440	
7,887000	0,66	0,564850	
7,898000	0,66	0,565140	
7,909000	0,66	0,565250	
7,920000	0,66	0,566760	
7,931000	0,66	0,570910	
7,942000	0,66	0,573570	
7,953000	0,66	0,574330	
7,964000	0,66	0,574770	
7,975000	0,66	0,575290	
7,986000	0,66	0,575950	
7,997000	0,66	0,576340	
8,008000	0,66	0,579320	
8,019000	0,66	0,581560	
8,030000	0,66	0,581560	
8,041000	0,66	0,582430	
8,052000	0,66	0,582960	
8,063000	0,66	0,583390	
8,074000	0,66	0,585330	
8,085000	0,66	0,586920	
8,096000	0,66	0,587020	
8,107000	0,66	0,588670	
8,118000	0,66	0,590140	
8,129000	0,66	0,591020	
8,140000	0,66	0,590050	
8,151000	0,66	0,592350	
8,162000	0,66	0,597060	
8,173000	0,66	0,599060	
8,184000	0,66	0,599050	
8,195000	0,66	0,600930	
8,206000	0,66	0,604000	
8,217000	0,66	0,605330	
8,228000	0,66	0,605730	
8,239000	0,66	0,606550	
8,250000	0,66	0,606510	
8,261000	0,66	0,607820	
8,272000	0,66	0,609790	
8,283000	0,66	0,613320	
8,294000	0,66	0,614470	
8,305000	0,66	0,616030	
8,316000	0,66	0,620420	
8,327000	0,66	0,624230	
8,338000	0,66	0,627790	
8,349000	0,66	0,633140	
8,360000	0,66	0,637380	
8,371000	0,66	0,642390	
8,382000	0,66	0,642450	
8,393000	0,66	0,643760	
8,404000	0,66	0,647190	
8,415000	0,66	0,647130	
8,426000	0,66	0,648310	
8,437000	0,66	0,652040	
8,448000	0,66	0,651800	
8,459000	0,66	0,650580	
8,470000	0,66	0,650570	
8,481000	0,66	0,650850	
8,492000	0,66	0,653130	
8,503000	0,66	0,654390	
8,514000	0,66	0,658400	
8,525000	0,66	0,661560	
8,536000	0,66	0,662420	
8,547000	0,66	0,660580	
8,558000	0,66	0,659960	
8,569000	0,66	0,662910	
8,580000	0,66	0,668870	
8,591000	0,66	0,669080	
8,602000	0,66	0,667840	
8,613000	0,66	0,670700	
8,624000	0,66	0,674260	
8,635000	0,66	0,675950	
8,646000	0,66	0,678490	
8,657000	0,66	0,682410	
8,668000	0,66	0,683780	
8,679000	0,66	0,686400	
8,690000	0,66	0,690460	
8,701000	0,66	0,693660	
8,712000	0,66	0,694880	
8,723000	0,66	0,695280	
8,734000	0,66	0,697800	
8,745000	0,66	0,700050	
8,756000	0,66	0,700700	
8,767000	0,66	0,702300	
8,778000	0,66	0,705860	
8,789000	0,66	0,708310	
8,800000	0,66	0,711060	
8,811000	0,66	0,714640	
8,822000	0,66	0,716240	
8,833000	0,66	0,719050	
8,844000	0,66	0,721320	
8,855000	0,66	0,720920	
8,866000	0,66	0,722470	
8,877000	0,66	0,722960	
8,888000	0,66	0,724300	
8,899000	0,66	0,727140	
8,910000	0,66	0,728370	
8,921000	0,66	0,729510	
8,932000	0,66	0,733480	
8,943000	0,66	0,734460	
8,954000	0,66	0,735620	
8,965000	0,66	0,737390	
8,976000	0,66	0,737890	
8,987000	0,66	0,739120	
8,998000	0,66	0,741670	
9,009000	0,66	0,742650	
9,020000	0,66	0,742970	
9,031000	0,66	0,744930	
9,042000	0,66	0,747400	
9,053000	0,66	0,749860	
9,064000	0,66	0,752280	
9,075000	0,66	0,754210	
9,086000	0,66	0,756320	
9,097000	0,66	0,756290	
9,108000	0,66	0,755480	
9,119000	0,66	0,758330	
9,130000	0,66	0,760560	
9,141000	0,66	0,762440	
9,152000	0,66	0,764840	
9,163000	0,66	0,764680	
9,174000	0,66	0,766510	
9,185000	0,66	0,768430	
9,196000	0,66	0,771630	
9,207000	0,66	0,772090	
9,218000	0,66	0,773630	
9,229000	0,66	0,774610	
9,240000	0,66	0,776750	
9,251000	0,66	0,775890	
9,262000	0,66	0,776840	
9,273000	0,66	0,780040	
9,284000	0,66	0,783830	
9,295000	0,66	0,786450	
9,306000	0,66	0,790300	
9,317000	0,66	0,795040	
9,328000	0,66	0,799640	
9,339000	0,66	0,803440	
9,350000	0,66	0,809300	
9,361000	0,66	0,816360	
9,372000	0,66	0,821410	
9,383000	0,66	0,824390	
9,394000	0,66	0,824230	
9,405000	0,66	0,824160	
9,416000	0,66	0,825020	
9,427000	0,66	0,824700	
9,438000	0,66	0,821970	
9,449000	0,66	0,818700	
9,460000	0,66	0,817890	
9,471000	0,66	0,816410	
9,482000	0,66	0,813850	
9,493000	0,66	0,812530	
9,504000	0,66	0,810960	
9,515000	0,66	0,809850	
9,526000	0,66	0,811990	
9,537000	0,66	0,810220	
9,548000	0,66	0,808500	
9,559000	0,66	0,808590	
9,570000	0,66	0,808060	
9,581000	0,66	0,807960	
9,592000	0,66	0,809020	
9,603000	0,66	0,809840	
9,614000	0,66	0,814430	
9,625000	0,66	0,818450	
9,636000	0,66	0,817060	
9,647000	0,66	0,817080	
9,658000	0,66	0,816360	
9,669000	0,66	0,816450	
9,680000	0,66	0,818270	
9,691000	0,66	0,819700	
9,702000	0,66	0,819610	
9,713000	0,66	0,821420	
9,724000	0,66	0,824290	
9,735000	0,66	0,831030	
9,746000	0,66	0,836030	
9,757000	0,66	0,837550	
9,768000	0,66	0,839190	
9,779000	0,66	0,841900	
9,790000	0,66	0,842440	
9,801000	0,66	0,844650	
9,812000	0,66	0,849120	
9,823000	0,66	0,847900	
9,834000	0,66	0,848600	
9,845000	0,66	0,848720	
9,856000	0,66	0,846480	
9,867000	0,66	0,843450	
9,878000	0,66	0,843730	
9,889000	0,66	0,845010	
9,900000	0,66	0,845570	
9,911000	0,66	0,844360	
9,922000	0,66	0,846650	
9,933000	0,66	0,850600	
9,944000	0,66	0,854890	
9,955000	0,66	0,855110	
9,966000	0,66	0,855970	
9,977000	0,66	0,857750	
9,988000	0,66	0,857240	
9,999000	0,66	0,857230	
10,010000	0,66	0,858980	
10,021000	0,66	0,858350	
10,032000	0,66	0,858450	
10,043000	0,66	0,861850	
10,054000	0,66	0,865500	
10,065000	0,66	0,865550	
10,076000	0,66	0,866860	
10,087000	0,66	0,869540	
10,098000	0,66	0,870010	
10,109000	0,66	0,870750	
10,120000	0,66	0,871440	
10,131000	0,66	0,872910	
10,142000	0,66	0,875230	
10,153000	0,66	0,877010	
10,164000	0,66	0,879470	
10,175000	0,66	0,879850	
10,186000	0,66	0,880910	
10,197000	0,66	0,884830	
10,208000	0,66	0,885620	
10,219000	0,66	0,884520	
10,230000	0,66	0,886060	
10,241000	0,66	0,888810	
10,252000	0,66	0,889930	
10,263000	0,66	0,892250	
10,274000	0,66	0,893520	
10,285000	0,66	0,892000	
10,296000	0,66	0,888510	
10,307000	0,66	0,888100	
10,318000	0,66	0,887810	
10,329000	0,66	0,890530	
10,340000	0,66	0,892830	
10,351000	0,66	0,895880	
10,362000	0,66	0,900250	
10,373000	0,66	0,902900	
10,384000	0,66	0,900230	
10,395000	0,66	0,901830	
10,406000	0,66	0,902350	
10,417000	0,66	0,901840	
10,428000	0,66	0,901510	
10,439000	0,66	0,902870	
10,450000	0,66	0,906910	
10,461000	0,66	0,908270	
10,472000	0,66	0,908610	
10,483000	0,66	0,910080	
10,494000	0,66	0,910500	
10,505000	0,66	0,912200	
10,516000	0,66	0,913260	
10,527000	0,66	0,916580	
10,538000	0,66	0,917540	
10,549000	0,66	0,917180	
10,560000	0,66	0,919900	
10,571000	0,66	0,920230	
10,582000	0,66	0,921890	
10,593000	0,66	0,923340	
10,604000	0,66	0,923910	
10,615000	0,66	0,923800	
10,626000	0,66	0,925150	
10,637000	0,66	0,926180	
10,648000	0,66	0,928120	
10,659000	0,66	0,926770	
10,670000	0,66	0,926990	
10,681000	0,66	0,926220	
10,692000	0,66	0,923750	
10,703000	0,66	0,925010	
10,714000	0,66	0,929510	
10,725000	0,66	0,932250	
10,736000	0,66	0,935530	
10,747000	0,66	0,936980	
10,758000	0,66	0,939690	
10,769000	0,66	0,941120	
10,780000	0,66	0,941920	
10,791000	0,66	0,944140	
10,802000	0,66	0,943020	
10,813000	0,66	0,942740	
10,824000	0,66	0,946460	
10,835000	0,66	0,949040	
10,846000	0,66	0,949500	
10,857000	0,66	0,951810	
10,868000	0,66	0,955810	
10,879000	0,66	0,958740	
10,890000	0,66	0,960040	
10,901000	0,66	0,959100	
10,912000	0,66	0,958610	
10,923000	0,66	0,959730	
10,934000	0,66	0,961970	
10,945000	0,66	0,964080	
10,956000	0,66	0,966900	
10,967000	0,66	0,968920	
10,978000	0,66	0,970860	
10,989000	0,66	0,973760	
11,000000	0,66	0,978660	
11,011000	0,66	0,977970	
11,022000	0,66	0,977920	
11,033000	0,66	0,977810	
11,044000	0,66	0,979490	
11,055000	0,66	0,979990	
11,066000	0,66	0,979480	
11,077000	0,66	0,980370	
11,088000	0,66	0,980870	
11,099000	0,66	0,981030	
11,110000	0,66	0,981930	
11,121000	0,66	0,983590	
11,132000	0,66	0,984160	
11,143000	0,66	0,987780	
11,154000	0,66	0,988410	
11,165000	0,66	0,991130	
11,176000	0,66	0,992970	
11,187000	0,66	0,995520	
11,198000	0,66	0,993990	
11,209000	0,66	0,994930	
11,220000	0,66	0,997850	
11,231000	0,66	0,999230	
11,242000	0,66	1,001630	
11,253000	0,66	1,002540	
11,264000	0,66	1,004130	
11,275000	0,66	1,001500	
11,286000	0,66	1,001600	
11,297000	0,66	1,004360	
11,308000	0,66	1,010350	
11,319000	0,66	1,014940	
11,330000	0,66	1,018920	
11,341000	0,66	1,023130	
11,352000	0,66	1,029430	
11,363000	0,66	1,033960	
11,374000	0,66	1,035240	
11,385000	0,66	1,034640	
11,396000	0,66	1,034790	
11,407000	0,66	1,033940	
11,418000	0,66	1,033610	
11,429000	0,66	1,031390	
11,440000	0,66	1,028220	
11,451000	0,66	1,028110	
11,462000	0,66	1,025800	
11,473000	0,66	1,022760	
11,484000	0,66	1,019680	
11,495000	0,66	1,018330	
11,506000	0,66	1,020600	
11,517000	0,66	1,023220	
11,528000	0,66	1,023650	
11,539000	0,66	1,023670	
11,550000	0,66	1,024820	
11,561000	0,66	1,023110	
11,572000	0,66	1,021650	
11,583000	0,66	1,022240	
11,594000	0,66	1,022210	
11,605000	0,66	1,023190	
11,616000	0,66	1,025200	
11,627000	0,66	1,026610	
11,638000	0,66	1,028730	
11,649000	0,66	1,032890	
11,660000	0,66	1,036720	
11,671000	0,66	1,037880	
11,682000	0,66	1,036820	
11,693000	0,66	1,037210	
11,704000	0,66	1,038790	
11,715000	0,66	1,038820	
11,726000	0,66	1,040500	
11,737000	0,66	1,043580	
11,748000	0,66	1,047830	
11,759000	0,66	1,047930	
11,770000	0,66	1,049400	
11,781000	0,66	1,051840	
11,792000	0,66	1,049670	
11,803000	0,66	1,048490	
11,814000	0,66	1,053510	
11,825000	0,66	1,059010	
11,836000	0,66	1,062320	
11,847000	0,66	1,063250	
11,858000	0,66	1,062500	
11,869000	0,66	1,064180	
11,880000	0,66	1,067920	
11,891000	0,66	1,069060	
11,902000	0,66	1,070750	
11,913000	0,66	1,074440	
11,924000	0,66	1,075310	
11,935000	0,66	1,076060	
11,946000	0,66	1,077260	
11,957000	0,66	1,079440	
11,968000	0,66	1,079410	
11,979000	0,66	1,081650	
11,990000	0,66	1,082600	
12,001000	0,66	1,084630	
12,012000	0,66	1,082410	
12,023000	0,66	1,084770	
12,034000	0,66	1,088840	
12,045000	0,66	1,091040	
12,056000	0,66	1,091860	
12,067000	0,66	1,092400	
12,078000	0,66	1,092990	
12,089000	0,66	1,095340	
12,100000	0,66	1,098440	
12,111000	0,66	1,101000	
12,122000	0,66	1,102500	
12,133000	0,66	1,106940	
12,144000	0,66	1,111780	
12,155000	0,66	1,110670	
12,166000	0,66	1,113200	
12,177000	0,66	1,117530	
12,188000	0,66	1,117110	
12,199000	0,66	1,117200	
12,210000	0,66	1,119370	
12,221000	0,66	1,119650	
12,232000	0,66	1,120470	
12,243000	0,66	1,123450	
12,254000	0,66	1,124340	
12,265000	0,66	1,126150	
12,276000	0,66	1,127950	
12,287000	0,66	1,128900	
12,298000	0,66	1,131220	
12,309000	0,66	1,131540	
12,320000	0,66	1,134830	
12,331000	0,66	1,139020	
12,342000	0,66	1,140540	
12,353000	0,66	1,139860	
12,364000	0,66	1,139200	
12,375000	0,66	1,138970	
12,386000	0,66	1,139600	
12,397000	0,66	1,145300	
12,408000	0,66	1,146720	
12,419000	0,66	1,149880	
12,430000	0,66	1,152650	
12,441000	0,66	1,153050	
12,452000	0,66	1,154670	
12,463000	0,66	1,158340	
12,474000	0,66	1,159530	
12,485000	0,66	1,161980	
12,496000	0,66	1,163050	
12,507000	0,66	1,164680	
12,518000	0,66	1,162570	
12,529000	0,66	1,163620	
12,540000	0,66	1,168520	
12,551000	0,66	1,171490	
12,562000	0,66	1,176950	
12,573000	0,66	1,181610	
12,584000	0,66	1,184100	
12,595000	0,66	1,187210	
12,606000	0,66	1,188050	
12,617000	0,66	1,194010	
12,628000	0,66	1,197090	
12,639000	0,66	1,203010	
12,650000	0,66	1,210020	
12,661000	0,66	1,216790	
12,672000	0,66	1,221720	
12,683000	0,66	1,224390	
12,694000	0,66	1,225640	
12,705000	0,66	1,230040	
12,716000	0,66	1,237460	
12,727000	0,66	1,241650	
12,738000	0,66	1,241840	
12,749000	0,66	1,244520	
12,760000	0,66	1,245550	
12,771000	0,66	1,251100	
12,782000	0,66	1,259430	
12,793000	0,66	1,264620	
12,804000	0,66	1,265680	
12,815000	0,66	1,263260	
12,826000	0,66	1,259680	
12,837000	0,66	1,257030	
12,848000	0,66	1,255370	
12,859000	0,66	1,256340	
12,870000	0,66	1,259580	
12,881000	0,66	1,261860	
12,892000	0,66	1,263170	
12,903000	0,66	1,266470	
12,914000	0,66	1,270940	
12,925000	0,66	1,275430	
12,936000	0,66	1,281210	
12,947000	0,66	1,285930	
12,958000	0,66	1,289050	
12,969000	0,66	1,292500	
12,980000	0,66	1,294780	
12,991000	0,66	1,297710	
13,002000	0,66	1,302970	
13,013000	0,66	1,307390	
13,024000	0,66	1,309770	
13,035000	0,66	1,311680	
13,046000	0,66	1,313980	
13,057000	0,66	1,318830	
13,068000	0,66	1,325700	
13,079000	0,66	1,330660	
13,090000	0,66	1,332830	
13,101000	0,66	1,339990	
13,112000	0,66	1,345180	
13,123000	0,66	1,350910	
13,134000	0,66	1,357390	
13,145000	0,66	1,361140	
13,156000	0,66	1,363290	
13,167000	0,66	1,366640	
13,178000	0,66	1,370060	
13,189000	0,66	1,377080	
13,200000	0,66	1,381820	
13,211000	0,66	1,386340	
13,222000	0,66	1,390600	
13,233000	0,66	1,393320	
13,244000	0,66	1,399450	
13,255000	0,66	1,405990	
13,266000	0,66	1,411420	
13,277000	0,66	1,415390	
13,288000	0,66	1,419590	
13,299000	0,66	1,423270	
13,310000	0,66	1,427150	
13,321000	0,66	1,428720	
13,332000	0,66	1,431860	
13,343000	0,66	1,437370	
13,354000	0,66	1,441290	
13,365000	0,66	1,445460	
13,376000	0,66	1,451240	
13,387000	0,66	1,455910	
13,398000	0,66	1,458600	
13,409000	0,66	1,462920	
13,420000	0,66	1,469060	
13,431000	0,66	1,473420	
13,442000	0,66	1,478300	
13,453000	0,66	1,483900	
13,464000	0,66	1,487970	
13,475000	0,66	1,490940	
13,486000	0,66	1,497520	
13,497000	0,66	1,503550	
13,508000	0,66	1,509430	
13,519000	0,66	1,513180	
13,530000	0,66	1,515960	
13,541000	0,66	1,519200	
13,552000	0,66	1,520720	
13,563000	0,66	1,523020	
13,574000	0,66	1,525750	
13,585000	0,66	1,527830	
13,596000	0,66	1,530340	
13,607000	0,66	1,534790	
13,618000	0,66	1,538510	
13,629000	0,66	1,540780	
13,640000	0,66	1,544350	
13,651000	0,66	1,547220	
13,662000	0,66	1,551730	
13,673000	0,66	1,556010	
13,684000	0,66	1,559060	
13,695000	0,66	1,560990	
13,706000	0,66	1,563030	
13,717000	0,66	1,564460	
13,728000	0,66	1,568210	
13,739000	0,66	1,571140	
13,750000	0,66	1,572330	
13,761000	0,66	1,573150	
13,772000	0,66	1,577590	
13,783000	0,66	1,580400	
13,794000	0,66	1,579380	
13,805000	0,66	1,582660	
13,816000	0,66	1,583000	
13,827000	0,66	1,583360	
13,838000	0,66	1,584510	
13,849000	0,66	1,587510	
13,860000	0,66	1,587280	
13,871000	0,66	1,587040	
13,882000	0,66	1,592270	
13,893000	0,66	1,594160	
13,904000	0,66	1,596960	
13,915000	0,66	1,598620	
13,926000	0,66	1,600050	
13,937000	0,66	1,603350	
13,948000	0,66	1,606270	
13,959000	0,66	1,610380	
13,970000	0,66	1,615390	
13,981000	0,66	1,619490	
13,992000	0,66	1,620810	
14,003000	0,66	1,625510	
14,014000	0,66	1,629570	
14,025000	0,66	1,629870	
14,036000	0,66	1,631340	
14,047000	0,66	1,635570	
14,058000	0,66	1,640610	
14,069000	0,66	1,646320	
14,080000	0,66	1,655680	
14,091000	0,66	1,669560	
14,102000	0,66	1,687790	
14,113000	0,66	1,706220	
14,124000	0,66	1,730530	
14,135000	0,66	1,758470	
14,146000	0,66	1,787950	
14,157000	0,66	1,816780	
14,168000	0,66	1,841950	
14,179000	0,66	1,864450	
14,190000	0,66	1,886140	
14,201000	0,66	1,906920	
14,212000	0,66	1,927000	
14,223000	0,66	1,944880	
14,234000	0,66	1,963400	
14,245000	0,66	1,983060	
14,256000	0,66	1,997910	
14,267000	0,66	2,007000	
14,278000	0,66	2,011130	
14,289000	0,66	2,005780	
14,300000	0,66	1,993270	
14,311000	0,66	1,980490	
14,322000	0,66	1,967330	
14,333000	0,66	1,948910	
14,344000	0,66	1,925600	
14,355000	0,66	1,901500	
14,366000	0,66	1,875390	
14,377000	0,66	1,847300	
14,388000	0,66	1,821100	
14,399000	0,66	1,797570	
14,410000	0,66	1,770830	
14,421000	0,66	1,746210	
14,432000	0,66	1,728490	
14,443000	0,66	1,713490	
14,454000	0,66	1,700360	
14,465000	0,66	1,691680	
14,476000	0,66	1,685040	
14,487000	0,66	1,685910	
14,498000	0,66	1,691400	
14,509000	0,66	1,704180	
14,520000	0,66	1,724510	
14,531000	0,66	1,749060	
14,542000	0,66	1,779540	
14,553000	0,66	1,804660	
14,564000	0,66	1,817330	
14,575000	0,66	1,818070	
14,586000	0,66	1,807460	
14,597000	0,66	1,786710	
14,608000	0,66	1,758920	
14,619000	0,66	1,729280	
14,630000	0,66	1,704960	
14,641000	0,66	1,687330	
14,652000	0,66	1,669240	
14,663000	0,66	1,650600	
14,674000	0,66	1,636150	
14,685000	0,66	1,628070	
14,696000	0,66	1,620660	
14,707000	0,66	1,613430	
14,718000	0,66	1,611890	
14,729000	0,66	1,608480	
14,740000	0,66	1,604260	
14,751000	0,66	1,598770	
14,762000	0,66	1,598970	
14,773000	0,66	1,598670	
14,784000	0,66	1,594920	
14,795000	0,66	1,592450	
14,806000	0,66	1,591920	
14,817000	0,66	1,594380	
14,828000	0,66	1,597140	
14,839000	0,66	1,597950	
14,850000	0,66	1,597550	
14,861000	0,66	1,599790	
14,872000	0,66	1,603140	
14,883000	0,66	1,604590	
14,894000	0,66	1,602800	
14,905000	0,66	1,601200	
14,916000	0,66	1,601500	
14,927000	0,66	1,605500	
14,938000	0,66	1,610180	
14,949000	0,66	1,612100	
14,960000	0,66	1,612530	
14,971000	0,66	1,612680	
14,982000	0,66	1,613680	
14,993000	0,66	1,614170	
15,004000	0,66	1,611980	
15,015000	0,66	1,608270	
15,026000	0,66	1,606710	
15,037000	0,66	1,607010	
15,048000	0,66	1,607350	
15,059000	0,66	1,606920	
15,070000	0,66	1,603360	
15,081000	0,66	1,602010	
15,092000	0,66	1,599160	
15,103000	0,66	1,596660	
15,114000	0,66	1,597130	
15,125000	0,66	1,598770	
15,136000	0,66	1,599400	
15,147000	0,66	1,600060	
15,158000	0,66	1,604560	
15,169000	0,66	1,605040	
15,180000	0,66	1,604180	
15,191000	0,66	1,603710	
15,202000	0,66	1,600540	
15,213000	0,66	1,600330	
15,224000	0,66	1,602770	
15,235000	0,66	1,606640	
15,246000	0,66	1,606410	
15,257000	0,66	1,610310	
15,268000	0,66	1,613070	
15,279000	0,66	1,617850	
15,290000	0,66	1,620370	
15,301000	0,66	1,626260	
15,312000	0,66	1,635670	
15,323000	0,66	1,650310	
15,334000	0,66	1,665810	
15,345000	0,66	1,677680	
15,356000	0,66	1,689080	
15,367000	0,66	1,695710	
15,378000	0,66	1,698200	
15,389000	0,66	1,694050	
15,400000	0,66	1,684620	
15,411000	0,66	1,675050	
15,422000	0,66	1,670500	
15,433000	0,66	1,667270	
15,444000	0,66	1,662270	
15,455000	0,66	1,659900	
15,466000	0,66	1,662490	
15,477000	0,66	1,663040	
15,488000	0,66	1,663430	
15,499000	0,66	1,665860	
15,510000	0,66	1,666210	
15,521000	0,66	1,666210	
15,532000	0,66	1,663730	
15,543000	0,66	1,663210	
15,554000	0,66	1,665200	
15,565000	0,66	1,665270	
15,576000	0,66	1,667610	
15,587000	0,66	1,667690	
15,598000	0,66	1,670980	
15,609000	0,66	1,674670	
15,620000	0,66	1,678650	
15,631000	0,66	1,685720	
15,642000	0,66	1,690930	
15,653000	0,66	1,695930	
15,664000	0,66	1,703860	
15,675000	0,66	1,713280	
15,686000	0,66	1,725040	
15,697000	0,66	1,744620	
15,708000	0,66	1,772580	
15,719000	0,66	1,808900	
15,730000	0,66	1,855390	
15,741000	0,66	1,909620	
15,752000	0,66	1,968560	
15,763000	0,66	2,023540	
15,774000	0,66	2,067180	
15,785000	0,66	2,093140	
15,796000	0,66	2,098290	
15,807000	0,66	2,091870	
15,818000	0,66	2,075480	
15,829000	0,66	2,055120	
15,840000	0,66	2,032600	
15,851000	0,66	2,015230	
15,862000	0,66	1,999210	
15,873000	0,66	1,986130	
15,884000	0,66	1,976840	
15,895000	0,66	1,970760	
15,906000	0,66	1,969640	
15,917000	0,66	1,972160	
15,928000	0,66	1,977680	
15,939000	0,66	1,986350	
15,950000	0,66	2,002270	
15,961000	0,66	2,015620	
15,972000	0,66	2,029020	
15,983000	0,66	2,043790	
15,994000	0,66	2,063070	
16,005000	0,66	2,082440	
16,016000	0,66	2,099940	
16,027000	0,66	2,112910	
16,038000	0,66	2,123780	
16,049000	0,66	2,135150	
16,060000	0,66	2,146660	
16,071000	0,66	2,153460	
16,082000	0,66	2,160180	
16,093000	0,66	2,164660	
16,104000	0,66	2,168470	
16,115000	0,66	2,173830	
16,126000	0,66	2,179100	
16,137000	0,66	2,181090	
16,148000	0,66	2,185350	
16,159000	0,66	2,190130	
16,170000	0,66	2,189560	
16,181000	0,66	2,193210	
16,192000	0,66	2,199530	
16,203000	0,66	2,206010	
16,214000	0,66	2,209650	
16,225000	0,66	2,215960	
16,236000	0,66	2,224890	
16,247000	0,66	2,232910	
16,258000	0,66	2,240210	
16,269000	0,66	2,248100	
16,280000	0,66	2,256430	
16,291000	0,66	2,264520	
16,302000	0,66	2,267420	
16,313000	0,66	2,267520	
16,324000	0,66	2,270350	
16,335000	0,66	2,275120	
16,346000	0,66	2,274610	
16,357000	0,66	2,273250	
16,368000	0,66	2,273280	
16,379000	0,66	2,272500	
16,390000	0,66	2,276190	
16,401000	0,66	2,278390	
16,412000	0,66	2,277900	
16,423000	0,66	2,279800	
16,434000	0,66	2,283240	
16,445000	0,66	2,289720	
16,456000	0,66	2,294900	
16,467000	0,66	2,299580	
16,478000	0,66	2,301890	
16,489000	0,66	2,305180	
16,500000	0,66	2,308600	
16,511000	0,66	2,312800	
16,522000	0,66	2,315930	
16,533000	0,66	2,316910	
16,544000	0,66	2,318240	
16,555000	0,66	2,319950	
16,566000	0,66	2,323450	
16,577000	0,66	2,323040	
16,588000	0,66	2,322800	
16,599000	0,66	2,319460	
16,610000	0,66	2,315910	
16,621000	0,66	2,316980	
16,632000	0,66	2,318730	
16,643000	0,66	2,316180	
16,654000	0,66	2,315170	
16,665000	0,66	2,315420	
16,676000	0,66	2,314090	
16,687000	0,66	2,310380	
16,698000	0,66	2,313470	
16,709000	0,66	2,314930	
16,720000	0,66	2,315830	
16,731000	0,66	2,320250	
16,742000	0,66	2,320180	
16,753000	0,66	2,319140	
16,764000	0,66	2,319220	
16,775000	0,66	2,323800	
16,786000	0,66	2,330110	
16,797000	0,66	2,334050	
16,808000	0,66	2,334940	
16,819000	0,66	2,334400	
16,830000	0,66	2,339550	
16,841000	0,66	2,342960	
16,852000	0,66	2,349360	
16,863000	0,66	2,355110	
16,874000	0,66	2,360820	
16,885000	0,66	2,368280	
16,896000	0,66	2,374830	
16,907000	0,66	2,381690	
16,918000	0,66	2,389420	
16,929000	0,66	2,393010	
16,940000	0,66	2,399250	
16,951000	0,66	2,402460	
16,962000	0,66	2,407180	
16,973000	0,66	2,413880	
16,984000	0,66	2,419360	
16,995000	0,66	2,426960	
17,006000	0,66	2,434230	
17,017000	0,66	2,441740	
17,028000	0,66	2,452260	
17,039000	0,66	2,461490	
17,050000	0,66	2,470250	
17,061000	0,66	2,480040	
17,072000	0,66	2,491090	
17,083000	0,66	2,502010	
17,094000	0,66	2,513400	
17,105000	0,66	2,526430	
17,116000	0,66	2,539200	
17,127000	0,66	2,552830	
17,138000	0,66	2,566400	
17,149000	0,66	2,580210	
17,160000	0,66	2,595230	
17,171000	0,66	2,609910	
17,182000	0,66	2,625240	
17,193000	0,66	2,640680	
17,204000	0,66	2,651970	
17,215000	0,66	2,663460	
17,226000	0,66	2,679120	
17,237000	0,66	2,697100	
17,248000	0,66	2,713650	
17,259000	0,66	2,728850	
17,270000	0,66	2,744720	
17,281000	0,66	2,759390	
17,292000	0,66	2,775240	
17,303000	0,66	2,792770	
17,314000	0,66	2,804680	
17,325000	0,66	2,817490	
17,336000	0,66	2,827420	
17,347000	0,66	2,836480	
17,358000	0,66	2,849860	
17,369000	0,66	2,861720	
17,380000	0,66	2,872260	
17,391000	0,66	2,882420	
17,402000	0,66	2,892460	
17,413000	0,66	2,904380	
17,424000	0,66	2,912740	
17,435000	0,66	2,920780	
17,446000	0,66	2,928750	
17,457000	0,66	2,936180	
17,468000	0,66	2,947440	
17,479000	0,66	2,960370	
17,490000	0,66	2,969710	
17,501000	0,66	2,980300	
17,512000	0,66	2,990480	
17,523000	0,66	2,998570	
17,534000	0,66	3,004980	
17,545000	0,66	3,011760	
17,556000	0,66	3,018560	
17,567000	0,66	3,023250	
17,578000	0,66	3,027350	
17,589000	0,66	3,032550	
17,600000	0,66	3,035860	
17,611000	0,66	3,039400	
17,622000	0,66	3,044070	
17,633000	0,66	3,046260	
17,644000	0,66	3,049580	
17,655000	0,66	3,056480	
17,666000	0,66	3,063090	
17,677000	0,66	3,061710	
17,688000	0,66	3,063890	
17,699000	0,66	3,068060	
17,710000	0,66	3,071110	
17,721000	0,66	3,076460	
17,732000	0,66	3,081750	
17,743000	0,66	3,084050	
17,754000	0,66	3,087750	
17,765000	0,66	3,096440	
17,776000	0,66	3,107270	
17,787000	0,66	3,117370	
17,798000	0,66	3,129960	
17,809000	0,66	3,144530	
17,820000	0,66	3,158250	
17,831000	0,66	3,174240	
17,842000	0,66	3,187860	
17,853000	0,66	3,194900	
17,864000	0,66	3,199280	
17,875000	0,66	3,204940	
17,886000	0,66	3,207240	
17,897000	0,66	3,205340	
17,908000	0,66	3,205630	
17,919000	0,66	3,208710	
17,930000	0,66	3,213010	
17,941000	0,66	3,220180	
17,952000	0,66	3,233770	
17,963000	0,66	3,250750	
17,974000	0,66	3,274010	
17,985000	0,66	3,302040	
17,996000	0,66	3,332120	
18,007000	0,66	3,367340	
18,018000	0,66	3,404210	
18,029000	0,66	3,437750	
18,040000	0,66	3,464970	
18,051000	0,66	3,490090	
18,062000	0,66	3,509990	
18,073000	0,66	3,531730	
18,084000	0,66	3,547220	
18,095000	0,66	3,560560	
18,106000	0,66	3,576230	
18,117000	0,66	3,596300	
18,128000	0,66	3,622030	
18,139000	0,66	3,656340	
18,150000	0,66	3,702460	
18,161000	0,66	3,757370	
18,172000	0,66	3,827640	
18,183000	0,66	3,913030	
18,194000	0,66	4,007430	
18,205000	0,66	4,106720	
18,216000	0,66	4,214310	
18,227000	0,66	4,319980	
18,238000	0,66	4,416840	
18,249000	0,66	4,499050	
18,260000	0,66	4,562750	
18,271000	0,66	4,609740	
18,282000	0,66	4,636100	
18,293000	0,66	4,647800	
18,304000	0,66	4,650920	
18,315000	0,66	4,645000	
18,326000	0,66	4,637930	
18,337000	0,66	4,632370	
18,348000	0,66	4,626210	
18,359000	0,66	4,617820	
18,370000	0,66	4,603790	
18,381000	0,66	4,580930	
18,392000	0,66	4,549660	
18,403000	0,66	4,508650	
18,414000	0,66	4,455400	
18,425000	0,66	4,395580	
18,436000	0,66	4,335250	
18,447000	0,66	4,273550	
18,458000	0,66	4,210970	
18,469000	0,66	4,146400	
18,480000	0,66	4,078470	
18,491000	0,66	4,007730	
18,502000	0,66	3,934990	
18,513000	0,66	3,860000	
18,524000	0,66	3,782920	
18,535000	0,66	3,702550	
18,546000	0,66	3,623420	
18,557000	0,66	3,545350	
18,568000	0,66	3,470400	
18,579000	0,66	3,405340	
18,590000	0,66	3,347160	
18,601000	0,66	3,289450	
18,612000	0,66	3,234340	
18,623000	0,66	3,186750	
18,634000	0,66	3,146890	
18,645000	0,66	3,109420	
18,656000	0,66	3,078460	
18,667000	0,66	3,049490	
18,678000	0,66	3,022080	
18,689000	0,66	2,999010	
18,700000	0,66	2,980040	
18,711000	0,66	2,965770	
18,722000	0,66	2,952930	
18,733000	0,66	2,938100	
18,744000	0,66	2,932720	
18,755000	0,66	2,925860	
18,766000	0,66	2,919250	
18,777000	0,66	2,913510	
18,788000	0,66	2,909050	
18,799000	0,66	2,895100	
18,810000	0,66	2,877110	
18,821000	0,66	2,854440	
18,832000	0,66	2,827530	
18,843000	0,66	2,801420	
18,854000	0,66	2,775910	
18,865000	0,66	2,746650	
18,876000	0,66	2,720630	
18,887000	0,66	2,697780	
18,898000	0,66	2,674850	
18,909000	0,66	2,653090	
18,920000	0,66	2,632420	
18,931000	0,66	2,616210	
18,942000	0,66	2,599930	
18,953000	0,66	2,583490	
18,964000	0,66	2,571330	
18,975000	0,66	2,556910	
18,986000	0,66	2,541020	
18,997000	0,66	2,529440	
19,008000	0,66	2,515350	
19,019000	0,66	2,501900	
19,030000	0,66	2,488850	
19,041000	0,66	2,472260	
19,052000	0,66	2,455050	
19,063000	0,66	2,442630	
19,074000	0,66	2,430960	
19,085000	0,66	2,416030	
19,096000	0,66	2,403290	
19,107000	0,66	2,389170	
19,118000	0,66	2,369570	
19,129000	0,66	2,353400	
19,140000	0,66	2,341600	
19,151000	0,66	2,327590	
19,162000	0,66	2,310080	
19,173000	0,66	2,292120	
19,184000	0,66	2,275780	
19,195000	0,66	2,260740	
19,206000	0,66	2,247540	
19,217000	0,66	2,235770	
19,228000	0,66	2,224970	
19,239000	0,66	2,212610	
19,250000	0,66	2,197370	
19,261000	0,66	2,181830	
19,272000	0,66	2,165760	
19,283000	0,66	2,152540	
19,294000	0,66	2,144230	
19,305000	0,66	2,136120	
19,316000	0,66	2,126460	
19,327000	0,66	2,114900	
19,338000	0,66	2,102330	
19,349000	0,66	2,091510	
19,360000	0,66	2,083670	
19,371000	0,66	2,073250	
19,382000	0,66	2,061910	
19,393000	0,66	2,055100	
19,404000	0,66	2,044880	
19,415000	0,66	2,032810	
19,426000	0,66	2,026210	
19,437000	0,66	2,019550	
19,448000	0,66	2,011860	
19,459000	0,66	2,003500	
19,470000	0,66	1,994940	
19,481000	0,66	1,987930	
19,492000	0,66	1,982370	
19,503000	0,66	1,981520	
19,514000	0,66	1,977720	
19,525000	0,66	1,969620	
19,536000	0,66	1,964990	
19,547000	0,66	1,960800	
19,558000	0,66	1,954400	
19,569000	0,66	1,950160	
19,580000	0,66	1,946270	
19,591000	0,66	1,937450	
19,602000	0,66	1,926400	
19,613000	0,66	1,915770	
19,624000	0,66	1,902810	
19,635000	0,66	1,892160	
19,646000	0,66	1,884810	
19,657000	0,66	1,877610	
19,668000	0,66	1,874540	
19,679000	0,66	1,870300	
19,690000	0,66	1,861280	
19,701000	0,66	1,854260	
19,712000	0,66	1,846700	
19,723000	0,66	1,838370	
19,734000	0,66	1,829860	
19,745000	0,66	1,822380	
19,756000	0,66	1,816120	
19,767000	0,66	1,812380	
19,778000	0,66	1,808240	
19,789000	0,66	1,803320	
19,800000	0,66	1,800720	
19,811000	0,66	1,799110	
19,822000	0,66	1,794910	
19,833000	0,66	1,789850	
19,844000	0,66	1,787030	
19,855000	0,66	1,785750	
19,866000	0,66	1,783450	
19,877000	0,66	1,780590	
19,888000	0,66	1,780860	
19,899000	0,66	1,782870	
19,910000	0,66	1,783230	
19,921000	0,66	1,783310	
19,932000	0,66	1,784920	
19,943000	0,66	1,790100	
19,954000	0,66	1,797990	
19,965000	0,66	1,803880	
19,976000	0,66	1,805520	
19,987000	0,66	1,804570	
19,998000	0,66	1,804170	
20,009000	0,66	1,805350	
20,020000	0,66	1,801720	
20,031000	0,66	1,795090	
20,042000	0,66	1,785570	
20,053000	0,66	1,776420	
20,064000	0,66	1,766420	
20,075000	0,66	1,757240	
20,086000	0,66	1,749030	
20,097000	0,66	1,744250	
20,108000	0,66	1,740210	
20,119000	0,66	1,733380	
20,130000	0,66	1,734110	
20,141000	0,66	1,736050	
20,152000	0,66	1,739950	
20,163000	0,66	1,750980	
20,174000	0,66	1,763220	
20,185000	0,66	1,782350	
20,196000	0,66	1,805030	
20,207000	0,66	1,834390	
20,218000	0,66	1,865110	
20,229000	0,66	1,894870	
20,240000	0,66	1,919200	
20,251000	0,66	1,932340	
20,262000	0,66	1,935790	
20,273000	0,66	1,925500	
20,284000	0,66	1,909890	
20,295000	0,66	1,884670	
20,306000	0,66	1,859810	
20,317000	0,66	1,830790	
20,328000	0,66	1,807010	
20,339000	0,66	1,785230	
20,350000	0,66	1,769960	
20,361000	0,66	1,749750	
20,372000	0,66	1,731430	
20,383000	0,66	1,717750	
20,394000	0,66	1,706370	
20,405000	0,66	1,695260	
20,416000	0,66	1,689680	
20,427000	0,66	1,685680	
20,438000	0,66	1,682310	
20,449000	0,66	1,677630	
20,460000	0,66	1,670790	
20,471000	0,66	1,663800	
20,482000	0,66	1,657970	
20,493000	0,66	1,651500	
20,504000	0,66	1,648600	
20,515000	0,66	1,648480	
20,526000	0,66	1,647740	
20,537000	0,66	1,649170	
20,548000	0,66	1,651440	
20,559000	0,66	1,652400	
20,570000	0,66	1,652230	
20,581000	0,66	1,654520	
20,592000	0,66	1,659200	
20,603000	0,66	1,660890	
20,614000	0,66	1,663540	
20,625000	0,66	1,668810	
20,636000	0,66	1,669180	
20,647000	0,66	1,662820	
20,658000	0,66	1,656350	
20,669000	0,66	1,648150	
20,680000	0,66	1,639090	
20,691000	0,66	1,627220	
20,702000	0,66	1,619060	
20,713000	0,66	1,614880	
20,724000	0,66	1,608760	
20,735000	0,66	1,601290	
20,746000	0,66	1,594690	
20,757000	0,66	1,589730	
20,768000	0,66	1,581840	
20,779000	0,66	1,576360	
20,790000	0,66	1,570230	
20,801000	0,66	1,564740	
20,812000	0,66	1,558920	
20,823000	0,66	1,557210	
20,834000	0,66	1,556220	
20,845000	0,66	1,553700	
20,856000	0,66	1,550760	
20,867000	0,66	1,550410	
20,878000	0,66	1,548380	
20,889000	0,66	1,544920	
20,900000	0,66	1,543650	
20,911000	0,66	1,543960	
20,922000	0,66	1,544500	
20,933000	0,66	1,544060	
20,944000	0,66	1,546440	
20,955000	0,66	1,544770	
20,966000	0,66	1,543710	
20,977000	0,66	1,542580	
20,988000	0,66	1,542230	
20,999000	0,66	1,544750	
21,010000	0,66	1,547410	
21,021000	0,66	1,550050	
21,032000	0,66	1,552080	
21,043000	0,66	1,554660	
21,054000	0,66	1,558440	
21,065000	0,66	1,564320	
21,076000	0,66	1,571820	
21,087000	0,66	1,582170	
21,098000	0,66	1,596980	
21,109000	0,66	1,617810	
21,120000	0,66	1,645460	
21,131000	0,66	1,670810	
21,142000	0,66	1,694170	
21,153000	0,66	1,720460	
21,164000	0,66	1,743110	
21,175000	0,66	1,758520	
21,186000	0,66	1,767050	
21,197000	0,66	1,766930	
21,208000	0,66	1,759540	
21,219000	0,66	1,747930	
21,230000	0,66	1,735080	
21,241000	0,66	1,720180	
21,252000	0,66	1,701630	
21,263000	0,66	1,683000	
21,274000	0,66	1,666440	
21,285000	0,66	1,652640	
21,296000	0,66	1,640740	
21,307000	0,66	1,628600	
21,318000	0,66	1,618790	
21,329000	0,66	1,613120	
21,340000	0,66	1,605320	
21,351000	0,66	1,596340	
21,362000	0,66	1,592200	
21,373000	0,66	1,587380	
21,384000	0,66	1,583300	
21,395000	0,66	1,578440	
21,406000	0,66	1,572370	
21,417000	0,66	1,567990	
21,428000	0,66	1,567880	
21,439000	0,66	1,566190	
21,450000	0,66	1,566640	
21,461000	0,66	1,569510	
21,472000	0,66	1,573310	
21,483000	0,66	1,574850	
21,494000	0,66	1,575420	
21,505000	0,66	1,574740	
21,516000	0,66	1,576580	
21,527000	0,66	1,577320	
21,538000	0,66	1,578710	
21,549000	0,66	1,580520	
21,560000	0,66	1,582350	
21,571000	0,66	1,581400	
21,582000	0,66	1,584000	
21,593000	0,66	1,587020	
21,604000	0,66	1,589200	
21,615000	0,66	1,589270	
21,626000	0,66	1,589570	
21,637000	0,66	1,588600	
21,648000	0,66	1,588220	
21,659000	0,66	1,587420	
21,670000	0,66	1,588470	
21,681000	0,66	1,592970	
21,692000	0,66	1,598050	
21,703000	0,66	1,600530	
21,714000	0,66	1,599430	
21,725000	0,66	1,601100	
21,736000	0,66	1,603810	
21,747000	0,66	1,603130	
21,758000	0,66	1,602520	
21,769000	0,66	1,603070	
21,780000	0,66	1,606740	
21,791000	0,66	1,608430	
21,802000	0,66	1,609200	
21,813000	0,66	1,613810	
21,824000	0,66	1,613320	
21,835000	0,66	1,613080	
21,846000	0,66	1,616620	
21,857000	0,66	1,619400	
21,868000	0,66	1,622240	
21,879000	0,66	1,624550	
21,890000	0,66	1,624490	
21,901000	0,66	1,625840	
21,912000	0,66	1,630820	
21,923000	0,66	1,633650	
21,934000	0,66	1,635690	
21,945000	0,66	1,636410	
21,956000	0,66	1,635840	
21,967000	0,66	1,639170	
21,978000	0,66	1,642100	
21,989000	0,66	1,644550	
22,000000	0,66	1,651140	
22,011000	0,66	1,658010	
22,022000	0,66	1,663300	
22,033000	0,66	1,669550	
22,044000	0,66	1,675950	
22,055000	0,66	1,681030	
22,066000	0,66	1,683730	
22,077000	0,66	1,685020	
22,088000	0,66	1,683290	
22,099000	0,66	1,679580	
22,110000	0,66	1,674890	
22,121000	0,66	1,670580	
22,132000	0,66	1,667410	
22,143000	0,66	1,664760	
22,154000	0,66	1,663260	
22,165000	0,66	1,663420	
22,176000	0,66	1,662560	
22,187000	0,66	1,661300	
22,198000	0,66	1,669340	
22,209000	0,66	1,668930	
22,220000	0,66	1,667860	
22,231000	0,66	1,665860	
22,242000	0,66	1,663790	
22,253000	0,66	1,661330	
22,264000	0,66	1,660070	
22,275000	0,66	1,657760	
22,286000	0,66	1,657850	
22,297000	0,66	1,657970	
22,308000	0,66	1,657810	
22,319000	0,66	1,660880	
22,330000	0,66	1,661060	
22,341000	0,66	1,660440	
22,352000	0,66	1,663230	
22,363000	0,66	1,660760	
22,374000	0,66	1,660590	
22,385000	0,66	1,662000	
22,396000	0,66	1,662760	
22,407000	0,66	1,663450	
22,418000	0,66	1,668900	
22,429000	0,66	1,674620	
22,440000	0,66	1,676980	
22,451000	0,66	1,678410	
22,462000	0,66	1,678980	
22,473000	0,66	1,677930	
22,484000	0,66	1,678650	
22,495000	0,66	1,681860	
22,506000	0,66	1,683410	
22,517000	0,66	1,683720	
22,528000	0,66	1,681240	
22,539000	0,66	1,677440	
22,550000	0,66	1,677940	
22,561000	0,66	1,680190	
22,572000	0,66	1,680660	
22,583000	0,66	1,679590	
22,594000	0,66	1,681650	
22,605000	0,66	1,683840	
22,616000	0,66	1,685490	
22,627000	0,66	1,688670	
22,638000	0,66	1,693470	
22,649000	0,66	1,704360	
22,660000	0,66	1,718390	
22,671000	0,66	1,737190	
22,682000	0,66	1,767000	
22,693000	0,66	1,806700	
22,704000	0,66	1,859400	
22,715000	0,66	1,926440	
22,726000	0,66	2,012040	
22,737000	0,66	2,117360	
22,748000	0,66	2,243480	
22,759000	0,66	2,385160	
22,770000	0,66	2,539790	
22,781000	0,66	2,695920	
22,792000	0,66	2,844870	
22,803000	0,66	2,976930	
22,814000	0,66	3,081610	
22,825000	0,66	3,145960	
22,836000	0,66	3,162680	
22,847000	0,66	3,136180	
22,858000	0,66	3,070580	
22,869000	0,66	2,973170	
22,880000	0,66	2,857770	
22,891000	0,66	2,733720	
22,902000	0,66	2,613610	
22,913000	0,66	2,501270	
22,924000	0,66	2,402220	
22,935000	0,66	2,315450	
22,946000	0,66	2,240930	
22,957000	0,66	2,181390	
22,968000	0,66	2,130410	
22,979000	0,66	2,082800	
22,990000	0,66	2,041060	
23,001000	0,66	2,002070	
23,012000	0,66	1,969180	
23,023000	0,66	1,941950	
23,034000	0,66	1,916390	
23,045000	0,66	1,895820	
23,056000	0,66	1,879290	
23,067000	0,66	1,862780	
23,078000	0,66	1,851000	
23,089000	0,66	1,843900	
23,100000	0,66	1,834830	
23,111000	0,66	1,831000	
23,122000	0,66	1,828190	
23,133000	0,66	1,825300	
23,144000	0,66	1,819200	
23,155000	0,66	1,815940	
23,166000	0,66	1,814150	
23,177000	0,66	1,814750	
23,188000	0,66	1,812050	
23,199000	0,66	1,808780	
23,210000	0,66	1,804560	
23,221000	0,66	1,800860	
23,232000	0,66	1,792950	
23,243000	0,66	1,785750	
23,254000	0,66	1,780740	
23,265000	0,66	1,777980	
23,276000	0,66	1,776160	
23,287000	0,66	1,775940	
23,298000	0,66	1,774940	
23,309000	0,66	1,773240	
23,320000	0,66	1,771090	
23,331000	0,66	1,767960	
23,342000	0,66	1,766460	
23,353000	0,66	1,766220	
23,364000	0,66	1,769890	
23,375000	0,66	1,776580	
23,386000	0,66	1,779330	
23,397000	0,66	1,781630	
23,408000	0,66	1,786240	
23,419000	0,66	1,792750	
23,430000	0,66	1,801700	
23,441000	0,66	1,807910	
23,452000	0,66	1,813810	
23,463000	0,66	1,818960	
23,474000	0,66	1,824700	
23,485000	0,66	1,832810	
23,496000	0,66	1,840070	
23,507000	0,66	1,843770	
23,518000	0,66	1,850670	
23,529000	0,66	1,858180	
23,540000	0,66	1,864360	
23,551000	0,66	1,869890	
23,562000	0,66	1,873170	
23,573000	0,66	1,877180	
23,584000	0,66	1,882120	
23,595000	0,66	1,886190	
23,606000	0,66	1,886060	
23,617000	0,66	1,889300	
23,628000	0,66	1,893590	
23,639000	0,66	1,907680	
23,650000	0,66	1,921700	
23,661000	0,66	1,947050	
23,672000	0,66	1,980460	
23,683000	0,66	2,017820	
23,694000	0,66	2,065730	
23,705000	0,66	2,126470	
23,716000	0,66	2,196780	
23,727000	0,66	2,276180	
23,738000	0,66	2,367140	
23,749000	0,66	2,468020	
23,760000	0,66	2,574900	
23,771000	0,66	2,684380	
23,782000	0,66	2,796150	
23,793000	0,66	2,909160	
23,804000	0,66	3,018740	
23,815000	0,66	3,132380	
23,826000	0,66	3,251780	
23,837000	0,66	3,390060	
23,848000	0,66	3,557050	
23,859000	0,66	3,768290	
23,870000	0,66	4,027940	
23,881000	0,66	4,338820	
23,892000	0,66	4,688900	
23,903000	0,66	5,051960	
23,914000	0,66	5,395890	
23,925000	0,66	5,690390	
23,936000	0,66	5,906230	
23,947000	0,66	6,028900	
23,958000	0,66	6,059280	
23,969000	0,66	6,014580	
23,980000	0,66	5,920340	
23,991000	0,66	5,797200	
24,002000	0,66	5,671060	
24,013000	0,66	5,558640	
24,024000	0,66	5,477820	
24,035000	0,66	5,454170	
24,046000	0,66	5,517310	
24,057000	0,66	5,758220	
24,068000	0,66	6,441730	
24,079000	0,66	8,156290	
24,090000	0,66	11,835330	
24,101000	0,66	18,776320	
24,112000	0,66	30,962430	
24,123000	0,66	51,292370	
24,134000	0,66	84,743010	
24,145000	0,66	134,980500	
24,156000	0,66	197,559600	
24,167000	0,66	262,545740	
24,178000	0,66	320,238420	
24,189000	0,66	365,380340	
24,200000	0,66	396,939050	
24,211000	0,66	416,249240	
24,222000	0,66	425,261230	
24,233000	0,66	426,041650	
24,244000	0,66	420,390840	
24,255000	0,66	409,913220	
24,266000	0,66	395,997050	
24,277000	0,66	379,459560	
24,288000	0,66	361,097850	
24,299000	0,66	341,589210	
24,310000	0,66	321,381380	
24,321000	0,66	300,891190	
24,332000	0,66	280,316910	
24,343000	0,66	259,928720	
24,354000	0,66	239,948550	
24,365000	0,66	220,579720	
24,376000	0,66	202,065020	
24,387000	0,66	184,443700	
24,398000	0,66	167,826360	
24,409000	0,66	152,387000	
24,420000	0,66	138,182350	
24,431000	0,66	125,300300	
24,442000	0,66	113,689110	
24,453000	0,66	103,284910	
24,464000	0,66	94,050730	
24,475000	0,66	85,849600	
24,486000	0,66	78,537590	
24,497000	0,66	71,941380	
24,508000	0,66	65,911330	
24,519000	0,66	60,320380	
24,530000	0,66	55,079130	
24,541000	0,66	50,151460	
24,552000	0,66	45,495130	
24,563000	0,66	41,092040	
24,574000	0,66	36,986190	
24,585000	0,66	33,186610	
24,596000	0,66	29,716190	
24,607000	0,66	26,577330	
24,618000	0,66	23,760910	
24,629000	0,66	21,267020	
24,640000	0,66	19,076310	
24,651000	0,66	17,173260	
24,662000	0,66	15,533990	
24,673000	0,66	14,123300	
24,684000	0,66	12,915900	
24,695000	0,66	11,878280	
24,706000	0,66	10,989810	
24,717000	0,66	10,227440	
24,728000	0,66	9,570840	
24,739000	0,66	9,000700	
24,750000	0,66	8,494970	
24,761000	0,66	8,044620	
24,772000	0,66	7,638170	
24,783000	0,66	7,264220	
24,794000	0,66	6,909140	
24,805000	0,66	6,567510	
24,816000	0,66	6,232820	
24,827000	0,66	5,902150	
24,838000	0,66	5,583820	
24,849000	0,66	5,280870	
24,860000	0,66	4,993130	
24,871000	0,66	4,728550	
24,882000	0,66	4,490910	
24,893000	0,66	4,278200	
24,904000	0,66	4,093570	
24,915000	0,66	3,939510	
24,926000	0,66	3,806760	
24,937000	0,66	3,694910	
24,948000	0,66	3,602590	
24,959000	0,66	3,524900	
24,970000	0,66	3,456860	
24,981000	0,66	3,397450	
24,992000	0,66	3,343540	
25,003000	0,66	3,291110	
25,014000	0,66	3,234710	
25,025000	0,66	3,182170	
25,036000	0,66	3,129610	
25,047000	0,66	3,078040	
25,058000	0,66	3,025320	
25,069000	0,66	2,976500	
25,080000	0,66	2,932490	
25,091000	0,66	2,889620	
25,102000	0,66	2,847030	
25,113000	0,66	2,806240	
25,124000	0,66	2,766680	
25,135000	0,66	2,729910	
25,146000	0,66	2,701380	
25,157000	0,66	2,678760	
25,168000	0,66	2,660990	
25,179000	0,66	2,650040	
25,190000	0,66	2,646940	
25,201000	0,66	2,657830	
25,212000	0,66	2,683790	
25,223000	0,66	2,721940	
25,234000	0,66	2,773400	
25,245000	0,66	2,839980	
25,256000	0,66	2,920120	
25,267000	0,66	3,005840	
25,278000	0,66	3,096010	
25,289000	0,66	3,188240	
25,300000	0,66	3,274030	
25,311000	0,66	3,343710	
25,322000	0,66	3,386500	
25,333000	0,66	3,400760	
25,344000	0,66	3,386920	
25,355000	0,66	3,345530	
25,366000	0,66	3,276480	
25,377000	0,66	3,190180	
25,388000	0,66	3,094850	
25,399000	0,66	2,990480	
25,410000	0,66	2,883230	
25,421000	0,66	2,779750	
25,432000	0,66	2,681860	
25,443000	0,66	2,590570	
25,454000	0,66	2,505420	
25,465000	0,66	2,427350	
25,476000	0,66	2,359650	
25,487000	0,66	2,302580	
25,498000	0,66	2,253140	
25,509000	0,66	2,210840	
25,520000	0,66	2,175690	
25,531000	0,66	2,146280	
25,542000	0,66	2,125030	
25,553000	0,66	2,107590	
25,564000	0,66	2,090550	
25,575000	0,66	2,072850	
25,586000	0,66	2,055290	
25,597000	0,66	2,040970	
25,608000	0,66	2,025440	
25,619000	0,66	2,010630	
25,630000	0,66	1,994010	
25,641000	0,66	1,979750	
25,652000	0,66	1,966820	
25,663000	0,66	1,954710	
25,674000	0,66	1,948230	
25,685000	0,66	1,942200	
25,696000	0,66	1,936450	
25,707000	0,66	1,930060	
25,718000	0,66	1,929090	
25,729000	0,66	1,929500	
25,740000	0,66	1,932240	
25,751000	0,66	1,933890	
25,762000	0,66	1,930930	
25,773000	0,66	1,931130	
25,784000	0,66	1,928270	
25,795000	0,66	1,926380	
25,806000	0,66	1,922910	
25,817000	0,66	1,913390	
25,828000	0,66	1,901510	
25,839000	0,66	1,889070	
25,850000	0,66	1,878510	
25,861000	0,66	1,868870	
25,872000	0,66	1,855420	
25,883000	0,66	1,843450	
25,894000	0,66	1,830810	
25,905000	0,66	1,817290	
25,916000	0,66	1,804440	
25,927000	0,66	1,794460	
25,938000	0,66	1,783610	
25,949000	0,66	1,773600	
25,960000	0,66	1,765980	
25,971000	0,66	1,756110	
25,982000	0,66	1,746720	
25,993000	0,66	1,739960	
26,004000	0,66	1,731380	
26,015000	0,66	1,725930	
26,026000	0,66	1,724110	
26,037000	0,66	1,721880	
26,048000	0,66	1,720050	
26,059000	0,66	1,720310	
26,070000	0,66	1,720160	
26,081000	0,66	1,719540	
26,092000	0,66	1,718590	
26,103000	0,66	1,722800	
26,114000	0,66	1,729180	
26,125000	0,66	1,732510	
26,136000	0,66	1,739070	
26,147000	0,66	1,747240	
26,158000	0,66	1,753360	
26,169000	0,66	1,758510	
26,180000	0,66	1,763020	
26,191000	0,66	1,769000	
26,202000	0,66	1,776430	
26,213000	0,66	1,782810	
26,224000	0,66	1,786800	
26,235000	0,66	1,786370	
26,246000	0,66	1,783880	
26,257000	0,66	1,781030	
26,268000	0,66	1,776080	
26,279000	0,66	1,766430	
26,290000	0,66	1,755230	
26,301000	0,66	1,743020	
26,312000	0,66	1,732680	
26,323000	0,66	1,722430	
26,334000	0,66	1,710870	
26,345000	0,66	1,701590	
26,356000	0,66	1,691880	
26,367000	0,66	1,684900	
26,378000	0,66	1,681860	
26,389000	0,66	1,679700	
26,400000	0,66	1,676680	
26,411000	0,66	1,672830	
26,422000	0,66	1,674150	
26,433000	0,66	1,677250	
26,444000	0,66	1,682340	
26,455000	0,66	1,683740	
26,466000	0,66	1,685690	
26,477000	0,66	1,691530	
26,488000	0,66	1,697840	
26,499000	0,66	1,699530	
26,510000	0,66	1,702260	
26,521000	0,66	1,710910	
26,532000	0,66	1,713650	
26,543000	0,66	1,715760	
26,554000	0,66	1,717640	
26,565000	0,66	1,716850	
26,576000	0,66	1,710170	
26,587000	0,66	1,701960	
26,598000	0,66	1,693200	
26,609000	0,66	1,686160	
26,620000	0,66	1,680110	
26,631000	0,66	1,674080	
26,642000	0,66	1,663300	
26,653000	0,66	1,652270	
26,664000	0,66	1,646890	
26,675000	0,66	1,644380	
26,686000	0,66	1,642420	
26,697000	0,66	1,640090	
26,708000	0,66	1,639870	
26,719000	0,66	1,635820	
26,730000	0,66	1,634360	
26,741000	0,66	1,636240	
26,752000	0,66	1,637070	
26,763000	0,66	1,634770	
26,774000	0,66	1,632480	
26,785000	0,66	1,631140	
26,796000	0,66	1,628880	
26,807000	0,66	1,625550	
26,818000	0,66	1,621060	
26,829000	0,66	1,616250	
26,840000	0,66	1,612740	
26,851000	0,66	1,611520	
26,862000	0,66	1,610410	
26,873000	0,66	1,611620	
26,884000	0,66	1,615600	
26,895000	0,66	1,617230	
26,906000	0,66	1,623710	
26,917000	0,66	1,636690	
26,928000	0,66	1,649920	
26,939000	0,66	1,661930	
26,950000	0,66	1,674270	
26,961000	0,66	1,683890	
26,972000	0,66	1,692660	
26,983000	0,66	1,697340	
26,994000	0,66	1,697180	
27,005000	0,66	1,691690	
27,016000	0,66	1,684590	
27,027000	0,66	1,675670	
27,038000	0,66	1,667560	
27,049000	0,66	1,655630	
27,060000	0,66	1,643520	
27,071000	0,66	1,633750	
27,082000	0,66	1,626840	
27,093000	0,66	1,621760	
27,104000	0,66	1,616430	
27,115000	0,66	1,612410	
27,126000	0,66	1,607330	
27,137000	0,66	1,605080	
27,148000	0,66	1,601900	
27,159000	0,66	1,602530	
27,170000	0,66	1,602410	
27,181000	0,66	1,603150	
27,192000	0,66	1,605610	
27,203000	0,66	1,609930	
27,214000	0,66	1,612260	
27,225000	0,66	1,613620	
27,236000	0,66	1,611940	
27,247000	0,66	1,612130	
27,258000	0,66	1,610070	
27,269000	0,66	1,607730	
27,280000	0,66	1,602060	
27,291000	0,66	1,597510	
27,302000	0,66	1,594000	
27,313000	0,66	1,591030	
27,324000	0,66	1,584940	
27,335000	0,66	1,582790	
27,346000	0,66	1,583490	
27,357000	0,66	1,578220	
27,368000	0,66	1,574690	
27,379000	0,66	1,574110	
27,390000	0,66	1,576790	
27,401000	0,66	1,579160	
27,412000	0,66	1,582820	
27,423000	0,66	1,584600	
27,434000	0,66	1,583050	
27,445000	0,66	1,582940	
27,456000	0,66	1,584410	
27,467000	0,66	1,585020	
27,478000	0,66	1,584590	
27,489000	0,66	1,583710	
27,500000	0,66	1,586550	
27,511000	0,66	1,590490	
27,522000	0,66	1,590530	
27,533000	0,66	1,591950	
27,544000	0,66	1,594940	
27,555000	0,66	1,592790	
27,566000	0,66	1,589210	
27,577000	0,66	1,589560	
27,588000	0,66	1,588590	
27,599000	0,66	1,586170	
27,610000	0,66	1,582680	
27,621000	0,66	1,577660	
27,632000	0,66	1,573550	
27,643000	0,66	1,572010	
27,654000	0,66	1,570620	
27,665000	0,66	1,567680	
27,676000	0,66	1,567060	
27,687000	0,66	1,564800	
27,698000	0,66	1,560110	
27,709000	0,66	1,559990	
27,720000	0,66	1,560950	
27,731000	0,66	1,560550	
27,742000	0,66	1,561200	
27,753000	0,66	1,562090	
27,764000	0,66	1,561820	
27,775000	0,66	1,563970	
27,786000	0,66	1,566480	
27,797000	0,66	1,564570	
27,808000	0,66	1,568730	
27,819000	0,66	1,572460	
27,830000	0,66	1,572420	
27,841000	0,66	1,571780	
27,852000	0,66	1,574640	
27,863000	0,66	1,579800	
27,874000	0,66	1,582840	
27,885000	0,66	1,583450	
27,896000	0,66	1,583250	
27,907000	0,66	1,583440	
27,918000	0,66	1,583620	
27,929000	0,66	1,582330	
27,940000	0,66	1,581060	
27,951000	0,66	1,580440	
27,962000	0,66	1,580990	
27,973000	0,66	1,582230	
27,984000	0,66	1,580030	
27,995000	0,66	1,579180	
28,006000	0,66	1,580880	
28,017000	0,66	1,583650	
28,028000	0,66	1,586620	
28,039000	0,66	1,585100	
28,050000	0,66	1,588180	
28,061000	0,66	1,590260	
28,072000	0,66	1,592230	
28,083000	0,66	1,598860	
28,094000	0,66	1,605430	
28,105000	0,66	1,611550	
28,116000	0,66	1,618220	
28,127000	0,66	1,627540	
28,138000	0,66	1,634150	
28,149000	0,66	1,639640	
28,160000	0,66	1,647290	
28,171000	0,66	1,652320	
28,182000	0,66	1,654330	
28,193000	0,66	1,658280	
28,204000	0,66	1,664710	
28,215000	0,66	1,671720	
28,226000	0,66	1,678040	
28,237000	0,66	1,682760	
28,248000	0,66	1,689620	
28,259000	0,66	1,701640	
28,270000	0,66	1,716270	
28,281000	0,66	1,732260	
28,292000	0,66	1,748440	
28,303000	0,66	1,765100	
28,314000	0,66	1,785850	
28,325000	0,66	1,810340	
28,336000	0,66	1,839220	
28,347000	0,66	1,869910	
28,358000	0,66	1,904850	
28,369000	0,66	1,943350	
28,380000	0,66	1,980670	
28,391000	0,66	2,020600	
28,402000	0,66	2,067660	
28,413000	0,66	2,121650	
28,424000	0,66	2,178550	
28,435000	0,66	2,244520	
28,446000	0,66	2,319630	
28,457000	0,66	2,399610	
28,468000	0,66	2,486080	
28,479000	0,66	2,576470	
28,490000	0,66	2,675470	
28,501000	0,66	2,777960	
28,512000	0,66	2,875840	
28,523000	0,66	2,970700	
28,534000	0,66	3,056160	
28,545000	0,66	3,127780	
28,556000	0,66	3,181460	
28,567000	0,66	3,218290	
28,578000	0,66	3,238700	
28,589000	0,66	3,245170	
28,600000	0,66	3,245540	
28,611000	0,66	3,238720	
28,622000	0,66	3,234510	
28,633000	0,66	3,234650	
28,644000	0,66	3,239890	
28,655000	0,66	3,253840	
28,666000	0,66	3,277100	
28,677000	0,66	3,303590	
28,688000	0,66	3,333970	
28,699000	0,66	3,369000	
28,710000	0,66	3,406280	
28,721000	0,66	3,441420	
28,732000	0,66	3,471010	
28,743000	0,66	3,492430	
28,754000	0,66	3,508030	
28,765000	0,66	3,514350	
28,776000	0,66	3,506800	
28,787000	0,66	3,489020	
28,798000	0,66	3,462190	
28,809000	0,66	3,426480	
28,820000	0,66	3,381180	
28,831000	0,66	3,324100	
28,842000	0,66	3,261400	
28,853000	0,66	3,192920	
28,864000	0,66	3,120290	
28,875000	0,66	3,044770	
28,886000	0,66	2,968350	
28,897000	0,66	2,897470	
28,908000	0,66	2,835840	
28,919000	0,66	2,780010	
28,930000	0,66	2,727550	
28,941000	0,66	2,680710	
28,952000	0,66	2,642110	
28,963000	0,66	2,608620	
28,974000	0,66	2,575720	
28,985000	0,66	2,546410	
28,996000	0,66	2,522700	
29,007000	0,66	2,502310	
29,018000	0,66	2,476000	
29,029000	0,66	2,446480	
29,040000	0,66	2,414720	
29,051000	0,66	2,382730	
29,062000	0,66	2,349840	
29,073000	0,66	2,313640	
29,084000	0,66	2,279040	
29,095000	0,66	2,249790	
29,106000	0,66	2,221330	
29,117000	0,66	2,198510	
29,128000	0,66	2,178810	
29,139000	0,66	2,156700	
29,150000	0,66	2,140800	
29,161000	0,66	2,125440	
29,172000	0,66	2,115200	
29,183000	0,66	2,106670	
29,194000	0,66	2,099640	
29,205000	0,66	2,095670	
29,216000	0,66	2,089030	
29,227000	0,66	2,087830	
29,238000	0,66	2,090840	
29,249000	0,66	2,096330	
29,260000	0,66	2,105110	
29,271000	0,66	2,116750	
29,282000	0,66	2,129690	
29,293000	0,66	2,146790	
29,304000	0,66	2,163010	
29,315000	0,66	2,179980	
29,326000	0,66	2,198420	
29,337000	0,66	2,215320	
29,348000	0,66	2,228840	
29,359000	0,66	2,238250	
29,370000	0,66	2,238340	
29,381000	0,66	2,231550	
29,392000	0,66	2,218600	
29,403000	0,66	2,200630	
29,414000	0,66	2,178300	
29,425000	0,66	2,151230	
29,436000	0,66	2,121960	
29,447000	0,66	2,094310	
29,458000	0,66	2,068440	
29,469000	0,66	2,046100	
29,480000	0,66	2,025820	
29,491000	0,66	2,005880	
29,502000	0,66	1,985650	
29,513000	0,66	1,968680	
29,524000	0,66	1,954850	
29,535000	0,66	1,941470	
29,546000	0,66	1,930120	
29,557000	0,66	1,923470	
29,568000	0,66	1,916970	
29,579000	0,66	1,907920	
29,590000	0,66	1,901420	
29,601000	0,66	1,894900	
29,612000	0,66	1,887460	
29,623000	0,66	1,883390	
29,634000	0,66	1,878910	
29,645000	0,66	1,873410	
29,656000	0,66	1,871150	
29,667000	0,66	1,869840	
29,678000	0,66	1,867100	
29,689000	0,66	1,863210	
29,700000	0,66	1,857900	
29,711000	0,66	1,858360	
29,722000	0,66	1,858420	
29,733000	0,66	1,856850	
29,744000	0,66	1,854350	
29,755000	0,66	1,849190	
29,766000	0,66	1,847810	
29,777000	0,66	1,844630	
29,788000	0,66	1,838220	
29,799000	0,66	1,835620	
29,810000	0,66	1,831340	
29,821000	0,66	1,828040	
29,832000	0,66	1,827710	
29,843000	0,66	1,823350	
29,854000	0,66	1,818890	
29,865000	0,66	1,816240	
29,876000	0,66	1,815310	
29,887000	0,66	1,814770	
29,898000	0,66	1,812320	
29,909000	0,66	1,807970	
29,920000	0,66	1,803460	
29,931000	0,66	1,802030	
29,942000	0,66	1,800480	
29,953000	0,66	1,802090	
29,964000	0,66	1,799930	
29,975000	0,66	1,795140	
29,986000	0,66	1,791910	
29,997000	0,66	1,789620	
30,008000	0,66	1,786910	
30,019000	0,66	1,782930	
30,030000	0,66	1,780760	
30,041000	0,66	1,781100	
30,052000	0,66	1,783240	
30,063000	0,66	1,781000	
30,074000	0,66	1,781190	
30,085000	0,66	1,783570	
30,096000	0,66	1,786230	
30,107000	0,66	1,787760	
30,118000	0,66	1,787590	
30,129000	0,66	1,791200	
30,140000	0,66	1,795050	
30,151000	0,66	1,800410	
30,162000	0,66	1,805110	
30,173000	0,66	1,808870	
30,184000	0,66	1,814680	
30,195000	0,66	1,821670	
30,206000	0,66	1,829070	
30,217000	0,66	1,837280	
30,228000	0,66	1,841540	
30,239000	0,66	1,843430	
30,250000	0,66	1,843790	
30,261000	0,66	1,840910	
30,272000	0,66	1,838800	
30,283000	0,66	1,836410	
30,294000	0,66	1,832230	
30,305000	0,66	1,829350	
30,316000	0,66	1,825540	
30,327000	0,66	1,820570	
30,338000	0,66	1,815830	
30,349000	0,66	1,811010	
30,360000	0,66	1,809650	
30,371000	0,66	1,809250	
30,382000	0,66	1,807660	
30,393000	0,66	1,805280	
30,404000	0,66	1,803170	
30,415000	0,66	1,801440	
30,426000	0,66	1,802260	
30,437000	0,66	1,800010	
30,448000	0,66	1,798950	
30,459000	0,66	1,800390	
30,470000	0,66	1,807130	
30,481000	0,66	1,810910	
30,492000	0,66	1,813430	
30,503000	0,66	1,815650	
30,514000	0,66	1,818720	
30,525000	0,66	1,823110	
30,536000	0,66	1,824720	
30,547000	0,66	1,826270	
30,558000	0,66	1,828620	
30,569000	0,66	1,827360	
30,580000	0,66	1,826110	
30,591000	0,66	1,822210	
30,602000	0,66	1,817090	
30,613000	0,66	1,815150	
30,624000	0,66	1,808240	
30,635000	0,66	1,805810	
30,646000	0,66	1,801310	
30,657000	0,66	1,798490	
30,668000	0,66	1,797840	
30,679000	0,66	1,796540	
30,690000	0,66	1,796890	
30,701000	0,66	1,796560	
30,712000	0,66	1,797600	
30,723000	0,66	1,795440	
30,734000	0,66	1,794570	
30,745000	0,66	1,796760	
30,756000	0,66	1,800070	
30,767000	0,66	1,801200	
30,778000	0,66	1,804890	
30,789000	0,66	1,805620	
30,800000	0,66	1,805130	
30,811000	0,66	1,804970	
30,822000	0,66	1,801330	
30,833000	0,66	1,801100	
30,844000	0,66	1,800770	
30,855000	0,66	1,799080	
30,866000	0,66	1,794990	
30,877000	0,66	1,791840	
30,888000	0,66	1,790140	
30,899000	0,66	1,788300	
30,910000	0,66	1,786820	
30,921000	0,66	1,787740	
30,932000	0,66	1,785040	
30,943000	0,66	1,782540	
30,954000	0,66	1,780840	
30,965000	0,66	1,780200	
30,976000	0,66	1,779770	
30,987000	0,66	1,777710	
30,998000	0,66	1,775630	
31,009000	0,66	1,774880	
31,020000	0,66	1,777730	
31,031000	0,66	1,779460	
31,042000	0,66	1,778230	
31,053000	0,66	1,778120	
31,064000	0,66	1,776800	
31,075000	0,66	1,775330	
31,086000	0,66	1,776970	
31,097000	0,66	1,780320	
31,108000	0,66	1,781130	
31,119000	0,66	1,780870	
31,130000	0,66	1,780730	
31,141000	0,66	1,786500	
31,152000	0,66	1,788860	
31,163000	0,66	1,789420	
31,174000	0,66	1,791040	
31,185000	0,66	1,792700	
31,196000	0,66	1,788720	
31,207000	0,66	1,785270	
31,218000	0,66	1,785170	
31,229000	0,66	1,783560	
31,240000	0,66	1,781170	
31,251000	0,66	1,778930	
31,262000	0,66	1,778370	
31,273000	0,66	1,776670	
31,284000	0,66	1,775580	
31,295000	0,66	1,772830	
31,306000	0,66	1,771000	
31,317000	0,66	1,769090	
31,328000	0,66	1,769800	
31,339000	0,66	1,768050	
31,350000	0,66	1,766530	
31,361000	0,66	1,764050	
31,372000	0,66	1,766920	
31,383000	0,66	1,769450	
31,394000	0,66	1,770090	
31,405000	0,66	1,768940	
31,416000	0,66	1,765190	
31,427000	0,66	1,764410	
31,438000	0,66	1,764950	
31,449000	0,66	1,764470	
31,460000	0,66	1,766320	
31,471000	0,66	1,767690	
31,482000	0,66	1,765890	
31,493000	0,66	1,764170	
31,504000	0,66	1,763380	
31,515000	0,66	1,763620	
31,526000	0,66	1,764790	
31,537000	0,66	1,763250	
31,548000	0,66	1,762110	
31,559000	0,66	1,762210	
31,570000	0,66	1,766090	
31,581000	0,66	1,767470	
31,592000	0,66	1,767160	
31,603000	0,66	1,766190	
31,614000	0,66	1,763720	
31,625000	0,66	1,760460	
31,636000	0,66	1,760560	
31,647000	0,66	1,761740	
31,658000	0,66	1,762310	
31,669000	0,66	1,762610	
31,680000	0,66	1,763450	
31,691000	0,66	1,765270	
31,702000	0,66	1,765260	
31,713000	0,66	1,762130	
31,724000	0,66	1,757330	
31,735000	0,66	1,755500	
31,746000	0,66	1,757780	
31,757000	0,66	1,759040	
31,768000	0,66	1,757580	
31,779000	0,66	1,756240	
31,790000	0,66	1,752610	
31,801000	0,66	1,751890	
31,812000	0,66	1,753530	
31,823000	0,66	1,753820	
31,834000	0,66	1,752550	
31,845000	0,66	1,749970	
31,856000	0,66	1,746450	
31,867000	0,66	1,747200	
31,878000	0,66	1,746390	
31,889000	0,66	1,748600	
31,900000	0,66	1,752300	
31,911000	0,66	1,752090	
31,922000	0,66	1,748050	
31,933000	0,66	1,747130	
31,944000	0,66	1,745990	
31,955000	0,66	1,744490	
31,966000	0,66	1,747230	
31,977000	0,66	1,746930	
31,988000	0,66	1,744970	
31,999000	0,66	1,740990	
32,010000	0,66	1,737440	
32,021000	0,66	1,737140	
32,032000	0,66	1,737350	
32,043000	0,66	1,740660	
32,054000	0,66	1,741180	
32,065000	0,66	1,739060	
32,076000	0,66	1,739910	
32,087000	0,66	1,739020	
32,098000	0,66	1,739950	
32,109000	0,66	1,740330	
32,120000	0,66	1,739260	
32,131000	0,66	1,739430	
32,142000	0,66	1,738620	
32,153000	0,66	1,738210	
32,164000	0,66	1,738130	
32,175000	0,66	1,736910	
32,186000	0,66	1,737630	
32,197000	0,66	1,737500	
32,208000	0,66	1,732750	
32,219000	0,66	1,732130	
32,230000	0,66	1,732880	
32,241000	0,66	1,732560	
32,252000	0,66	1,730770	
32,263000	0,66	1,729670	
32,274000	0,66	1,731160	
32,285000	0,66	1,731880	
32,296000	0,66	1,733990	
32,307000	0,66	1,733660	
32,318000	0,66	1,733970	
32,329000	0,66	1,735630	
32,340000	0,66	1,734010	
32,351000	0,66	1,730720	
32,362000	0,66	1,730460	
32,373000	0,66	1,730510	
32,384000	0,66	1,728960	
32,395000	0,66	1,728810	
32,406000	0,66	1,728470	
32,417000	0,66	1,727670	
32,428000	0,66	1,727300	
32,439000	0,66	1,727180	
32,450000	0,66	1,728330	
32,461000	0,66	1,728530	
32,472000	0,66	1,727550	
32,483000	0,66	1,726340	
32,494000	0,66	1,725140	
32,505000	0,66	1,721900	
32,516000	0,66	1,723590	
32,527000	0,66	1,725920	
32,538000	0,66	1,724980	
32,549000	0,66	1,724130	
32,560000	0,66	1,724970	
32,571000	0,66	1,722500	
32,582000	0,66	1,720860	
32,593000	0,66	1,722530	
32,604000	0,66	1,723240	
32,615000	0,66	1,723770	
32,626000	0,66	1,720620	
32,637000	0,66	1,719820	
32,648000	0,66	1,719550	
32,659000	0,66	1,721830	
32,670000	0,66	1,722080	
32,681000	0,66	1,720780	
32,692000	0,66	1,718960	
32,703000	0,66	1,719010	
32,714000	0,66	1,718790	
32,725000	0,66	1,721940	
32,736000	0,66	1,721640	
32,747000	0,66	1,723430	
32,758000	0,66	1,722630	
32,769000	0,66	1,717010	
32,780000	0,66	1,715400	
32,791000	0,66	1,716710	
32,802000	0,66	1,719750	
32,813000	0,66	1,719400	
32,824000	0,66	1,717670	
32,835000	0,66	1,716830	
32,846000	0,66	1,715150	
32,857000	0,66	1,713590	
32,868000	0,66	1,716100	
32,879000	0,66	1,715560	
32,890000	0,66	1,713850	
32,901000	0,66	1,715340	
32,912000	0,66	1,715350	
32,923000	0,66	1,715660	
32,934000	0,66	1,717040	
32,945000	0,66	1,716580	
32,956000	0,66	1,717100	
32,967000	0,66	1,720100	
32,978000	0,66	1,719390	
32,989000	0,66	1,717310	
33,000000	0,66	1,717060	
33,011000	0,66	1,718270	
33,022000	0,66	1,719360	
33,033000	0,66	1,719180	
33,044000	0,66	1,718590	
33,055000	0,66	1,717640	
33,066000	0,66	1,714890	
33,077000	0,66	1,713930	
33,088000	0,66	1,714430	
33,099000	0,66	1,715770	
33,110000	0,66	1,719500	
33,121000	0,66	1,719080	
33,132000	0,66	1,717210	
33,143000	0,66	1,719740	
33,154000	0,66	1,721990	
33,165000	0,66	1,722840	
33,176000	0,66	1,724470	
33,187000	0,66	1,726820	
33,198000	0,66	1,727000	
33,209000	0,66	1,725570	
33,220000	0,66	1,726860	
33,231000	0,66	1,727920	
33,242000	0,66	1,725200	
33,253000	0,66	1,723970	
33,264000	0,66	1,726370	
33,275000	0,66	1,727530	
33,286000	0,66	1,731460	
33,297000	0,66	1,733040	
33,308000	0,66	1,735740	
33,319000	0,66	1,734270	
33,330000	0,66	1,735580	
33,341000	0,66	1,738200	
33,352000	0,66	1,736910	
33,363000	0,66	1,737930	
33,374000	0,66	1,741650	
33,385000	0,66	1,740350	
33,396000	0,66	1,738630	
33,407000	0,66	1,740670	
33,418000	0,66	1,742640	
33,429000	0,66	1,741110	
33,440000	0,66	1,741350	
33,451000	0,66	1,741970	
33,462000	0,66	1,744250	
33,473000	0,66	1,744300	
33,484000	0,66	1,743140	
33,495000	0,66	1,744280	
33,506000	0,66	1,745120	
33,517000	0,66	1,747110	
33,528000	0,66	1,746610	
33,539000	0,66	1,745450	
33,550000	0,66	1,747250	
33,561000	0,66	1,746150	
33,572000	0,66	1,747070	
33,583000	0,66	1,746070	
33,594000	0,66	1,744650	
33,605000	0,66	1,744590	
33,616000	0,66	1,744290	
33,627000	0,66	1,746160	
33,638000	0,66	1,746940	
33,649000	0,66	1,746990	
33,660000	0,66	1,748190	
33,671000	0,66	1,746390	
33,682000	0,66	1,743430	
33,693000	0,66	1,742430	
33,704000	0,66	1,741440	
33,715000	0,66	1,741380	
33,726000	0,66	1,743130	
33,737000	0,66	1,743740	
33,748000	0,66	1,743240	
33,759000	0,66	1,740850	
33,770000	0,66	1,739150	
33,781000	0,66	1,739510	
33,792000	0,66	1,740120	
33,803000	0,66	1,742930	
33,814000	0,66	1,744120	
33,825000	0,66	1,742140	
33,836000	0,66	1,743340	
33,847000	0,66	1,744660	
33,858000	0,66	1,740890	
33,869000	0,66	1,738280	
33,880000	0,66	1,739730	
33,891000	0,66	1,742710	
33,902000	0,66	1,742890	
33,913000	0,66	1,743630	
33,924000	0,66	1,742740	
33,935000	0,66	1,742120	
33,946000	0,66	1,740780	
33,957000	0,66	1,742360	
33,968000	0,66	1,741270	
33,979000	0,66	1,740960	
33,990000	0,66	1,742020	
34,001000	0,66	1,741090	
34,012000	0,66	1,742810	
34,023000	0,66	1,742160	
34,034000	0,66	1,741380	
34,045000	0,66	1,742180	
34,056000	0,66	1,742460	
34,067000	0,66	1,740230	
34,078000	0,66	1,738740	
34,089000	0,66	1,737750	
34,100000	0,66	1,735080	
34,111000	0,66	1,734210	
34,122000	0,66	1,735210	
34,133000	0,66	1,734390	
34,144000	0,66	1,734610	
34,155000	0,66	1,736270	
34,166000	0,66	1,736870	
34,177000	0,66	1,734020	
34,188000	0,66	1,737030	
34,199000	0,66	1,739730	
34,210000	0,66	1,738500	
34,221000	0,66	1,736840	
34,232000	0,66	1,737390	
34,243000	0,66	1,740400	
34,254000	0,66	1,741880	
34,265000	0,66	1,742550	
34,276000	0,66	1,741570	
34,287000	0,66	1,741180	
34,298000	0,66	1,742120	
34,309000	0,66	1,741320	
34,320000	0,66	1,741380	
34,331000	0,66	1,742480	
34,342000	0,66	1,742950	
34,353000	0,66	1,739810	
34,364000	0,66	1,737790	
34,375000	0,66	1,737150	
34,386000	0,66	1,738330	
34,397000	0,66	1,738930	
34,408000	0,66	1,740880	
34,419000	0,66	1,741920	
34,430000	0,66	1,741240	
34,441000	0,66	1,743140	
34,452000	0,66	1,744650	
34,463000	0,66	1,745420	
34,474000	0,66	1,746360	
34,485000	0,66	1,745160	
34,496000	0,66	1,745360	
34,507000	0,66	1,745340	
34,518000	0,66	1,743650	
34,529000	0,66	1,744750	
34,540000	0,66	1,745020	
34,551000	0,66	1,743430	
34,562000	0,66	1,741670	
34,573000	0,66	1,741430	
34,584000	0,66	1,741260	
34,595000	0,66	1,741850	
34,606000	0,66	1,742220	
34,617000	0,66	1,742240	
34,628000	0,66	1,745740	
34,639000	0,66	1,747720	
34,650000	0,66	1,747460	
34,661000	0,66	1,747910	
34,672000	0,66	1,747810	
34,683000	0,66	1,746990	
34,694000	0,66	1,747680	
34,705000	0,66	1,745980	
34,716000	0,66	1,745810	
34,727000	0,66	1,743800	
34,738000	0,66	1,744060	
34,749000	0,66	1,746430	
34,760000	0,66	1,749840	
34,771000	0,66	1,748680	
34,782000	0,66	1,749560	
34,793000	0,66	1,748940	
34,804000	0,66	1,748930	
34,815000	0,66	1,747080	
34,826000	0,66	1,750380	
34,837000	0,66	1,752050	
34,848000	0,66	1,749500	
34,859000	0,66	1,751080	
34,870000	0,66	1,750150	
34,881000	0,66	1,748850	
34,892000	0,66	1,751710	
34,903000	0,66	1,753830	
34,914000	0,66	1,754700	
34,925000	0,66	1,751210	
34,936000	0,66	1,748910	
34,947000	0,66	1,752780	
34,958000	0,66	1,756530	
34,969000	0,66	1,759140	
34,980000	0,66	1,759790	
34,991000	0,66	1,761550	
35,002000	0,66	1,761960	
35,013000	0,66	1,761410	
35,024000	0,66	1,758580	
35,035000	0,66	1,757570	
35,046000	0,66	1,759410	
35,057000	0,66	1,758610	
35,068000	0,66	1,760790	
35,079000	0,66	1,765230	
35,090000	0,66	1,768580	
35,101000	0,66	1,768020	
35,112000	0,66	1,768010	
35,123000	0,66	1,768220	
35,134000	0,66	1,768070	
35,145000	0,66	1,769940	
35,156000	0,66	1,769030	
35,167000	0,66	1,766580	
35,178000	0,66	1,766870	
35,189000	0,66	1,769400	
35,200000	0,66	1,772360	
35,211000	0,66	1,771880	
35,222000	0,66	1,769590	
35,233000	0,66	1,768910	
35,244000	0,66	1,769920	
35,255000	0,66	1,771460	
35,266000	0,66	1,772200	
35,277000	0,66	1,770850	
35,288000	0,66	1,769890	
35,299000	0,66	1,767520	
35,310000	0,66	1,767880	
35,321000	0,66	1,770410	
35,332000	0,66	1,773520	
35,343000	0,66	1,773660	
35,354000	0,66	1,778030	
35,365000	0,66	1,779890	
35,376000	0,66	1,779550	
35,387000	0,66	1,781800	
35,398000	0,66	1,783210	
35,409000	0,66	1,785790	
35,420000	0,66	1,784150	
35,431000	0,66	1,782620	
35,442000	0,66	1,783270	
35,453000	0,66	1,783130	
35,464000	0,66	1,780720	
35,475000	0,66	1,779570	
35,486000	0,66	1,782850	
35,497000	0,66	1,782410	
35,508000	0,66	1,780440	
35,519000	0,66	1,781700	
35,530000	0,66	1,785290	
35,541000	0,66	1,783320	
35,552000	0,66	1,783530	
35,563000	0,66	1,784110	
35,574000	0,66	1,788780	
35,585000	0,66	1,788890	
35,596000	0,66	1,789910	
35,607000	0,66	1,789480	
35,618000	0,66	1,788300	
35,629000	0,66	1,788970	
35,640000	0,66	1,792070	
35,651000	0,66	1,790020	
35,662000	0,66	1,789640	
35,673000	0,66	1,786920	
35,684000	0,66	1,788360	
35,695000	0,66	1,793180	
35,706000	0,66	1,796160	
35,717000	0,66	1,794380	
35,728000	0,66	1,794420	
35,739000	0,66	1,801190	
35,750000	0,66	1,799740	
35,761000	0,66	1,796590	
35,772000	0,66	1,796110	
35,783000	0,66	1,798280	
35,794000	0,66	1,803490	
35,805000	0,66	1,804030	
35,816000	0,66	1,801550	
35,827000	0,66	1,798670	
35,838000	0,66	1,797570	
35,849000	0,66	1,799220	
35,860000	0,66	1,802060	
35,871000	0,66	1,805200	
35,882000	0,66	1,806090	
35,893000	0,66	1,806630	
35,904000	0,66	1,809170	
35,915000	0,66	1,810240	
35,926000	0,66	1,810060	
35,937000	0,66	1,812490	
35,948000	0,66	1,815190	
35,959000	0,66	1,814930	
35,970000	0,66	1,813390	
35,981000	0,66	1,815970	
35,992000	0,66	1,819350	
36,003000	0,66	1,822310	
36,014000	0,66	1,821840	
36,025000	0,66	1,821820	
36,036000	0,66	1,826020	
36,047000	0,66	1,830600	
36,058000	0,66	1,834260	
36,069000	0,66	1,835580	
36,080000	0,66	1,834720	
36,091000	0,66	1,832910	
36,102000	0,66	1,831570	
36,113000	0,66	1,833120	
36,124000	0,66	1,835730	
36,135000	0,66	1,836170	
36,146000	0,66	1,838830	
36,157000	0,66	1,841270	
36,168000	0,66	1,843150	
36,179000	0,66	1,844990	
36,190000	0,66	1,846400	
36,201000	0,66	1,846340	
36,212000	0,66	1,845950	
36,223000	0,66	1,849640	
36,234000	0,66	1,852500	
36,245000	0,66	1,855390	
36,256000	0,66	1,858510	
36,267000	0,66	1,860350	
36,278000	0,66	1,861280	
36,289000	0,66	1,862230	
36,300000	0,66	1,863690	
36,311000	0,66	1,866810	
36,322000	0,66	1,873390	
36,333000	0,66	1,877090	
36,344000	0,66	1,880670	
36,355000	0,66	1,886700	
36,366000	0,66	1,891140	
36,377000	0,66	1,894480	
36,388000	0,66	1,897880	
36,399000	0,66	1,900510	
36,410000	0,66	1,907440	
36,421000	0,66	1,912800	
36,432000	0,66	1,916810	
36,443000	0,66	1,922840	
36,454000	0,66	1,927260	
36,465000	0,66	1,928950	
36,476000	0,66	1,929820	
36,487000	0,66	1,932240	
36,498000	0,66	1,932210	
36,509000	0,66	1,931730	
36,520000	0,66	1,932870	
36,531000	0,66	1,931480	
36,542000	0,66	1,929250	
36,553000	0,66	1,928570	
36,564000	0,66	1,925170	
36,575000	0,66	1,922280	
36,586000	0,66	1,922070	
36,597000	0,66	1,920180	
36,608000	0,66	1,918820	
36,619000	0,66	1,915980	
36,630000	0,66	1,914300	
36,641000	0,66	1,911080	
36,652000	0,66	1,908070	
36,663000	0,66	1,910930	
36,674000	0,66	1,909970	
36,685000	0,66	1,910010	
36,696000	0,66	1,908000	
36,707000	0,66	1,907210	
36,718000	0,66	1,907990	
36,729000	0,66	1,904520	
36,740000	0,66	1,901480	
36,751000	0,66	1,904340	
36,762000	0,66	1,908850	
36,773000	0,66	1,910600	
36,784000	0,66	1,909070	
36,795000	0,66	1,909540	
36,806000	0,66	1,909300	
36,817000	0,66	1,909400	
36,828000	0,66	1,912790	
36,839000	0,66	1,916210	
36,850000	0,66	1,921580	
36,861000	0,66	1,923540	
36,872000	0,66	1,921610	
36,883000	0,66	1,924590	
36,894000	0,66	1,927630	
36,905000	0,66	1,929210	
36,916000	0,66	1,927920	
36,927000	0,66	1,931880	
36,938000	0,66	1,940690	
36,949000	0,66	1,940150	
36,960000	0,66	1,941550	
36,971000	0,66	1,943570	
36,982000	0,66	1,943820	
36,993000	0,66	1,945500	
37,004000	0,66	1,954100	
37,015000	0,66	1,959730	
37,026000	0,66	1,962140	
37,037000	0,66	1,965150	
37,048000	0,66	1,968100	
37,059000	0,66	1,972290	
37,070000	0,66	1,976400	
37,081000	0,66	1,980770	
37,092000	0,66	1,984240	
37,103000	0,66	1,989930	
37,114000	0,66	1,993440	
37,125000	0,66	1,994790	
37,136000	0,66	1,996220	
37,147000	0,66	2,000360	
37,158000	0,66	2,004770	
37,169000	0,66	2,011070	
37,180000	0,66	2,016320	
37,191000	0,66	2,022900	
37,202000	0,66	2,030740	
37,213000	0,66	2,036320	
37,224000	0,66	2,039220	
37,235000	0,66	2,042760	
37,246000	0,66	2,047780	
37,257000	0,66	2,055110	
37,268000	0,66	2,060450	
37,279000	0,66	2,063190	
37,290000	0,66	2,070490	
37,301000	0,66	2,078110	
37,312000	0,66	2,082490	
37,323000	0,66	2,087160	
37,334000	0,66	2,094660	
37,345000	0,66	2,100560	
37,356000	0,66	2,105310	
37,367000	0,66	2,111250	
37,378000	0,66	2,118210	
37,389000	0,66	2,124330	
37,400000	0,66	2,129800	
37,411000	0,66	2,135640	
37,422000	0,66	2,145470	
37,433000	0,66	2,152100	
37,444000	0,66	2,157810	
37,455000	0,66	2,162670	
37,466000	0,66	2,165290	
37,477000	0,66	2,172350	
37,488000	0,66	2,180810	
37,499000	0,66	2,191760	
37,510000	0,66	2,200700	
37,521000	0,66	2,206770	
37,532000	0,66	2,212890	
37,543000	0,66	2,217190	
37,554000	0,66	2,225930	
37,565000	0,66	2,235040	
37,576000	0,66	2,242810	
37,587000	0,66	2,250210	
37,598000	0,66	2,258670	
37,609000	0,66	2,265460	
37,620000	0,66	2,272820	
37,631000	0,66	2,279190	
37,642000	0,66	2,289170	
37,653000	0,66	2,299150	
37,664000	0,66	2,306460	
37,675000	0,66	2,313900	
37,686000	0,66	2,319560	
37,697000	0,66	2,328390	
37,708000	0,66	2,335590	
37,719000	0,66	2,342750	
37,730000	0,66	2,349970	
37,741000	0,66	2,358350	
37,752000	0,66	2,365610	
37,763000	0,66	2,374740	
37,774000	0,66	2,383530	
37,785000	0,66	2,390380	
37,796000	0,66	2,394810	
37,807000	0,66	2,402580	
37,818000	0,66	2,412550	
37,829000	0,66	2,419060	
37,840000	0,66	2,427660	
37,851000	0,66	2,434660	
37,862000	0,66	2,438450	
37,873000	0,66	2,442740	
37,884000	0,66	2,449420	
37,895000	0,66	2,459740	
37,906000	0,66	2,469170	
37,917000	0,66	2,476250	
37,928000	0,66	2,480940	
37,939000	0,66	2,487030	
37,950000	0,66	2,493780	
37,961000	0,66	2,499680	
37,972000	0,66	2,507480	
37,983000	0,66	2,514360	
37,994000	0,66	2,522580	
38,005000	0,66	2,531150	
38,016000	0,66	2,537630	
38,027000	0,66	2,541880	
38,038000	0,66	2,548150	
38,049000	0,66	2,559950	
38,060000	0,66	2,567300	
38,071000	0,66	2,574990	
38,082000	0,66	2,583260	
38,093000	0,66	2,593050	
38,104000	0,66	2,604350	
38,115000	0,66	2,613210	
38,126000	0,66	2,621650	
38,137000	0,66	2,632880	
38,148000	0,66	2,641470	
38,159000	0,66	2,652270	
38,170000	0,66	2,664110	
38,181000	0,66	2,674840	
38,192000	0,66	2,689010	
38,203000	0,66	2,702710	
38,214000	0,66	2,713640	
38,225000	0,66	2,726980	
38,236000	0,66	2,740290	
38,247000	0,66	2,754200	
38,258000	0,66	2,766370	
38,269000	0,66	2,778210	
38,280000	0,66	2,792850	
38,291000	0,66	2,806910	
38,302000	0,66	2,820880	
38,313000	0,66	2,840660	
38,324000	0,66	2,859390	
38,335000	0,66	2,881600	
38,346000	0,66	2,905770	
38,357000	0,66	2,927980	
38,368000	0,66	2,949830	
38,379000	0,66	2,973400	
38,390000	0,66	2,996160	
38,401000	0,66	3,016520	
38,412000	0,66	3,031950	
38,423000	0,66	3,043230	
38,434000	0,66	3,050030	
38,445000	0,66	3,058500	
38,456000	0,66	3,062610	
38,467000	0,66	3,063390	
38,478000	0,66	3,064110	
38,489000	0,66	3,061300	
38,500000	0,66	3,056730	
38,511000	0,66	3,054630	
38,522000	0,66	3,058170	
38,533000	0,66	3,060950	
38,544000	0,66	3,064340	
38,555000	0,66	3,068840	
38,566000	0,66	3,073220	
38,577000	0,66	3,078010	
38,588000	0,66	3,082990	
38,599000	0,66	3,089750	
38,610000	0,66	3,097960	
38,621000	0,66	3,104580	
38,632000	0,66	3,108130	
38,643000	0,66	3,111880	
38,654000	0,66	3,117490	
38,665000	0,66	3,124730	
38,676000	0,66	3,132130	
38,687000	0,66	3,135050	
38,698000	0,66	3,134770	
38,709000	0,66	3,135900	
38,720000	0,66	3,139710	
38,731000	0,66	3,144500	
38,742000	0,66	3,147300	
38,753000	0,66	3,148640	
38,764000	0,66	3,152150	
38,775000	0,66	3,154020	
38,786000	0,66	3,156050	
38,797000	0,66	3,159710	
38,808000	0,66	3,160110	
38,819000	0,66	3,159810	
38,830000	0,66	3,159530	
38,841000	0,66	3,160100	
38,852000	0,66	3,165740	
38,863000	0,66	3,167170	
38,874000	0,66	3,170140	
38,885000	0,66	3,174100	
38,896000	0,66	3,176010	
38,907000	0,66	3,177890	
38,918000	0,66	3,181200	
38,929000	0,66	3,188020	
38,940000	0,66	3,193650	
38,951000	0,66	3,196040	
38,962000	0,66	3,201890	
38,973000	0,66	3,207170	
38,984000	0,66	3,211920	
38,995000	0,66	3,215470	
39,006000	0,66	3,218900	
39,017000	0,66	3,225150	
39,028000	0,66	3,231030	
39,039000	0,66	3,239770	
39,050000	0,66	3,248720	
39,061000	0,66	3,254110	
39,072000	0,66	3,261290	
39,083000	0,66	3,269290	
39,094000	0,66	3,275770	
39,105000	0,66	3,283050	
39,116000	0,66	3,290990	
39,127000	0,66	3,296930	
39,138000	0,66	3,303510	
39,149000	0,66	3,311050	
39,160000	0,66	3,320370	
39,171000	0,66	3,330140	
39,182000	0,66	3,338870	
39,193000	0,66	3,346530	
39,204000	0,66	3,351080	
39,215000	0,66	3,357700	
39,226000	0,66	3,367510	
39,237000	0,66	3,374780	
39,248000	0,66	3,380170	
39,259000	0,66	3,387430	
39,270000	0,66	3,397240	
39,281000	0,66	3,403980	
39,292000	0,66	3,408910	
39,303000	0,66	3,414650	
39,314000	0,66	3,418990	
39,325000	0,66	3,423340	
39,336000	0,66	3,428320	
39,347000	0,66	3,434510	
39,358000	0,66	3,441750	
39,369000	0,66	3,448750	
39,380000	0,66	3,456200	
39,391000	0,66	3,463100	
39,402000	0,66	3,471600	
39,413000	0,66	3,481270	
39,424000	0,66	3,489970	
39,435000	0,66	3,502500	
39,446000	0,66	3,517080	
39,457000	0,66	3,527920	
39,468000	0,66	3,539780	
39,479000	0,66	3,551420	
39,490000	0,66	3,565840	
39,501000	0,66	3,581270	
39,512000	0,66	3,597840	
39,523000	0,66	3,614720	
39,534000	0,66	3,635290	
39,545000	0,66	3,656210	
39,556000	0,66	3,678410	
39,567000	0,66	3,698870	
39,578000	0,66	3,720610	
39,589000	0,66	3,743320	
39,600000	0,66	3,765620	
39,611000	0,66	3,791380	
39,622000	0,66	3,816290	
39,633000	0,66	3,838350	
39,644000	0,66	3,860780	
39,655000	0,66	3,878350	
39,666000	0,66	3,898800	
39,677000	0,66	3,918840	
39,688000	0,66	3,938560	
39,699000	0,66	3,954600	
39,710000	0,66	3,968750	
39,721000	0,66	3,980660	
39,732000	0,66	3,991740	
39,743000	0,66	4,001060	
39,754000	0,66	4,010130	
39,765000	0,66	4,017410	
39,776000	0,66	4,020680	
39,787000	0,66	4,022630	
39,798000	0,66	4,024450	
39,809000	0,66	4,025830	
39,820000	0,66	4,025400	
39,831000	0,66	4,025370	
39,842000	0,66	4,026010	
39,853000	0,66	4,021070	
39,864000	0,66	4,019490	
39,875000	0,66	4,019130	
39,886000	0,66	4,016960	
39,897000	0,66	4,018490	
39,908000	0,66	4,020390	
39,919000	0,66	4,018790	
39,930000	0,66	4,017940	
39,941000	0,66	4,018250	
39,952000	0,66	4,017910	
39,963000	0,66	4,017330	
39,974000	0,66	4,018860	
39,985000	0,66	4,019380	
39,996000	0,66	4,021520	
40,007000	0,66	4,025250	
